Date	2025年07月03日木曜日 09時51分24秒
Spectrometers	SR401765
ダーク	使用
リファレンス	使用
積分時間[msec]	300
平均回数	1
ｽﾑｰｼﾞﾝｸﾞ	5
Electrical Dark	USE
ピクセル数	3648
計測モード	反射率
保存開始波長[nm]	598.495
保存終了波長[nm]	1274.802
保存ﾋﾟｯﾁ波長[nm]	全波長

>>>>>>>>>> Data Start <<<<<<<<<<<<
598.495	-8.954072
598.713	-8.954072
598.931	-8.954072
599.148	-8.954072
599.366	0.000000
599.584	0.000000
599.802	0.000000
600.020	0.000000
600.238	0.000000
600.455	-266.894830
600.673	-603.980570
600.891	52.871405
601.109	58.269833
601.326	59.030376
601.544	59.913724
601.762	60.506896
601.979	60.469481
602.197	60.987670
602.415	61.264961
602.632	60.943343
602.850	60.670841
603.067	60.632322
603.285	60.776443
603.502	61.096719
603.720	61.513641
603.938	61.593921
604.155	61.588504
604.372	61.651041
604.590	61.576856
604.807	61.641757
605.025	61.911901
605.242	62.394757
605.460	62.610702
605.677	62.568580
605.894	62.447254
606.112	62.257227
606.329	62.548948
606.546	63.033985
606.764	63.417426
606.981	63.508688
607.198	63.476322
607.415	63.440407
607.633	63.359113
607.850	63.384156
608.067	63.518027
608.284	63.645728
608.501	63.823738
608.718	63.547590
608.935	63.238998
609.153	63.115725
609.370	63.347068
609.587	63.607476
609.804	63.956629
610.021	64.038947
610.238	63.917463
610.455	63.891589
610.672	64.026592
610.889	64.241137
611.106	64.441547
611.323	64.724065
611.540	64.821188
611.756	64.703247
611.973	64.851487
612.190	65.124825
612.407	65.663551
612.624	66.059409
612.841	66.198869
613.057	66.182794
613.274	66.133435
613.491	66.248203
613.708	66.046347
613.925	66.153649
614.141	66.295423
614.358	66.308131
614.575	66.276159
614.791	66.091311
615.008	66.045184
615.225	66.310477
615.441	66.558577
615.658	66.598551
615.874	66.672997
616.091	66.950216
616.307	67.290876
616.524	67.853802
616.740	68.375844
616.957	68.490653
617.173	68.611848
617.390	68.857975
617.606	68.907794
617.823	68.943993
618.039	69.151962
618.256	69.335933
618.472	69.325403
618.688	69.293037
618.905	69.395726
619.121	69.433696
619.337	69.635581
619.554	69.815834
619.770	69.857266
619.986	69.974188
620.202	69.949387
620.419	69.811003
620.635	69.604840
620.851	69.522757
621.067	69.355991
621.283	69.011456
621.499	68.752263
621.716	68.744211
621.932	68.838178
622.148	69.132587
622.364	69.423030
622.580	69.900820
622.796	70.357158
623.012	70.834769
623.228	71.252165
623.444	71.671658
623.660	72.036440
623.876	72.072563
624.092	71.989301
624.308	72.157335
624.524	72.424417
624.740	72.611401
624.955	72.520926
625.171	72.426177
625.387	72.411340
625.603	72.463664
625.819	72.412750
626.034	72.268184
626.250	72.472677
626.466	72.739158
626.682	72.864804
626.897	72.855449
627.113	72.803841
627.329	72.677238
627.544	72.750696
627.760	72.925415
627.976	73.158920
628.191	73.469467
628.407	73.625232
628.623	73.737743
628.838	73.871586
629.054	73.686718
629.269	73.471519
629.485	73.463381
629.700	73.905080
629.916	74.351216
630.131	74.584335
630.347	74.687897
630.562	74.871741
630.777	75.274916
630.993	75.630586
631.208	75.866986
631.424	76.264003
631.639	76.674735
631.854	76.933504
632.070	76.897022
632.285	76.691021
632.500	76.618981
632.715	76.715643
632.931	76.722223
633.146	76.675209
633.361	76.801188
633.576	77.043751
633.791	77.225465
634.007	77.208776
634.222	77.061429
634.437	76.993532
634.652	76.956934
634.867	77.028478
635.082	77.196647
635.297	77.569223
635.512	77.749303
635.727	77.698989
635.942	77.440665
636.157	77.268858
636.372	77.442544
636.587	77.929504
636.802	78.344059
637.017	78.711546
637.232	78.909827
637.447	79.019060
637.662	78.743676
637.876	78.644126
638.091	78.458191
638.306	78.364525
638.521	78.320234
638.736	78.144119
638.951	77.759144
639.165	77.517784
639.380	77.139499
639.595	76.706997
639.809	76.360533
640.024	76.123751
640.239	75.811868
640.453	75.760849
640.668	75.831775
640.883	75.881151
641.097	76.069279
641.312	76.450408
641.526	76.878622
641.741	77.352456
641.955	77.665867
642.170	77.927060
642.384	78.405571
642.599	78.873563
642.813	79.095929
643.028	79.373014
643.242	79.670567
643.457	79.971517
643.671	80.419432
643.885	80.711891
644.100	80.905499
644.314	81.310847
644.528	81.513206
644.743	81.380231
644.957	81.295782
645.171	81.454004
645.386	81.488216
645.600	81.604233
645.814	81.341183
646.028	80.747923
646.242	80.284114
646.457	79.890879
646.671	79.298343
646.885	79.014059
647.099	79.129735
647.313	79.467579
647.527	79.789869
647.741	80.090193
647.955	80.330673
648.169	80.531624
648.383	80.506252
648.597	80.450303
648.811	80.604652
649.025	80.981759
649.239	81.216312
649.453	81.126183
649.667	81.002854
649.881	80.936685
650.095	80.838041
650.309	80.686160
650.523	80.639875
650.737	80.497741
650.950	80.279363
651.164	80.126987
651.378	80.089001
651.592	80.060995
651.805	80.015245
652.019	79.798542
652.233	79.362911
652.447	78.915242
652.660	78.593621
652.874	78.379064
653.088	78.511623
653.301	78.731502
653.515	78.987779
653.728	79.157353
653.942	79.266726
654.156	79.502318
654.369	79.684121
654.583	79.900666
654.796	80.196311
655.010	80.423952
655.223	80.405776
655.437	80.367977
655.650	80.395905
655.863	80.361176
656.077	80.248013
656.290	80.133798
656.504	80.079476
656.717	80.149931
656.930	80.296880
657.144	80.285139
657.357	80.132315
657.570	80.168458
657.783	80.412294
657.997	80.767178
658.210	80.950449
658.423	81.135545
658.636	81.439929
658.849	81.477357
659.063	81.387875
659.276	81.372663
659.489	81.580308
659.702	81.771109
659.915	81.914887
660.128	81.959917
660.341	81.910070
660.554	82.071854
660.767	82.179950
660.980	81.985229
661.193	81.874423
661.406	81.860004
661.619	81.729698
661.832	81.728643
662.045	81.935700
662.258	82.016200
662.471	81.674327
662.684	81.408137
662.897	81.170340
663.110	80.980831
663.322	81.136086
663.535	81.435631
663.748	81.663537
663.961	81.848153
664.174	81.650518
664.386	81.490008
664.599	81.792771
664.812	82.505415
665.024	83.146379
665.237	83.542875
665.450	83.884157
665.662	84.103662
665.875	84.151107
666.088	84.236131
666.300	84.307498
666.513	84.503121
666.725	84.382849
666.938	84.065108
667.150	83.661351
667.363	83.154749
667.575	82.927076
667.788	82.991859
668.000	83.119040
668.213	83.031293
668.425	82.966056
668.638	83.017460
668.850	83.076111
669.062	83.176867
669.275	83.409671
669.487	83.794762
669.699	84.144761
669.912	84.371985
670.124	84.372247
670.336	84.157759
670.548	84.368146
670.761	84.626886
670.973	84.574297
671.185	84.278488
671.397	83.956534
671.609	83.567314
671.822	83.265425
672.034	83.136499
672.246	83.008760
672.458	82.802573
672.670	82.645458
672.882	82.478789
673.094	82.306041
673.306	82.301268
673.518	82.618877
673.730	83.143075
673.942	83.524205
674.154	83.648421
674.366	83.500732
674.578	83.277368
674.790	83.209070
675.002	83.031589
675.214	82.591888
675.425	82.259644
675.637	82.149553
675.849	82.245578
676.061	82.323946
676.273	82.224924
676.484	82.491693
676.696	83.228819
676.908	84.164598
677.120	84.834569
677.331	85.214342
677.543	85.567979
677.755	85.634531
677.966	85.559167
678.178	85.338271
678.389	85.230767
678.601	85.286215
678.813	84.891227
679.024	84.070298
679.236	83.101883
679.447	82.435421
679.659	82.206450
679.870	82.089155
680.082	81.910938
680.293	81.658671
680.505	81.325400
680.716	81.081431
680.927	81.030298
681.139	81.323344
681.350	81.773871
681.562	81.985678
681.773	81.986368
681.984	81.975367
682.196	82.077466
682.407	82.625636
682.618	83.223262
682.829	83.485060
683.041	83.398734
683.252	83.290644
683.463	83.087652
683.674	82.840875
683.885	82.773454
684.097	82.710025
684.308	82.688850
684.519	82.776063
684.730	82.725357
684.941	82.844192
685.152	83.533279
685.363	84.285393
685.574	84.376865
685.785	84.133857
685.996	83.894146
686.207	83.941852
686.418	84.329345
686.629	84.822121
686.840	85.056010
687.051	85.185409
687.262	85.089220
687.473	84.577900
687.684	83.986817
687.894	83.967361
688.105	84.148869
688.316	84.333873
688.527	84.180016
688.738	83.591907
688.948	82.855190
689.159	82.255098
689.370	81.658597
689.580	81.411735
689.791	81.520830
690.002	81.658342
690.212	81.655650
690.423	81.696515
690.634	81.732644
690.844	81.945941
691.055	82.295033
691.266	82.508826
691.476	82.675992
691.687	82.838501
691.897	82.755410
692.108	82.403592
692.318	82.193659
692.529	81.959912
692.739	81.580981
692.949	81.320046
693.160	81.132674
693.370	81.255098
693.581	81.605846
693.791	81.808637
694.001	81.957139
694.212	82.168654
694.422	82.492433
694.632	82.773744
694.843	83.151072
695.053	83.730362
695.263	84.052249
695.473	84.364189
695.683	84.730357
695.894	84.893007
696.104	85.034264
696.314	85.256597
696.524	85.507816
696.734	85.809363
696.944	85.974884
697.154	85.876097
697.365	85.506129
697.575	85.370655
697.785	85.096952
697.995	84.587200
698.205	84.486004
698.415	84.980826
698.625	85.173215
698.834	84.786006
699.044	84.228860
699.254	83.852564
699.464	83.730791
699.674	83.720414
699.884	83.729863
700.094	83.961172
700.304	84.232812
700.513	83.913584
700.723	82.940940
700.933	82.340042
701.143	82.279823
701.353	82.326402
701.562	82.447457
701.772	82.531636
701.982	82.303931
702.191	81.869103
702.401	81.372182
702.611	80.827088
702.820	80.806998
703.030	81.027245
703.239	81.213191
703.449	81.441936
703.659	81.573682
703.868	81.594431
704.078	81.814524
704.287	82.288035
704.497	82.703957
704.706	82.965312
704.916	83.031734
705.125	82.844594
705.334	82.807148
705.544	82.641694
705.753	82.060404
705.962	81.547483
706.172	81.155660
706.381	80.500372
706.590	79.903164
706.800	79.506638
707.009	79.209231
707.218	79.118583
707.428	79.036533
707.637	78.973185
707.846	78.961112
708.055	79.157874
708.264	79.402002
708.474	79.441206
708.683	79.512508
708.892	79.512547
709.101	79.492417
709.310	79.557226
709.519	79.598334
709.728	79.643354
709.937	79.655108
710.146	79.711033
710.355	79.570087
710.564	79.428961
710.773	79.694533
710.982	80.566748
711.191	81.729063
711.400	82.653489
711.609	83.077686
711.818	83.224393
712.027	83.371120
712.235	83.420024
712.444	83.457553
712.653	83.504470
712.862	83.330494
713.071	82.944081
713.279	82.147276
713.488	81.209516
713.697	80.371641
713.906	79.682749
714.114	79.318404
714.323	78.975479
714.532	78.579278
714.740	78.004804
714.949	77.480061
715.157	77.038649
715.366	76.732706
715.575	76.568031
715.783	76.650691
715.992	77.005709
716.200	77.374571
716.409	77.556973
716.617	77.959736
716.826	78.368853
717.034	78.675722
717.242	78.960892
717.451	79.442193
717.659	79.894299
717.868	80.052673
718.076	79.829158
718.284	79.335785
718.493	78.928287
718.701	78.516745
718.909	77.961046
719.118	77.517685
719.326	77.248248
719.534	77.141135
719.742	76.953576
719.951	76.508473
720.159	76.307958
720.367	76.150739
720.575	76.102678
720.783	76.248440
720.991	76.663353
721.199	77.113691
721.408	77.174755
721.616	77.094654
721.824	77.325156
722.032	77.739612
722.240	78.228188
722.448	78.505271
722.656	78.854596
722.864	79.114806
723.072	79.106218
723.280	78.626723
723.487	77.850452
723.695	77.324935
723.903	77.102262
724.111	76.728706
724.319	76.238193
724.527	75.859834
724.735	75.623627
724.942	75.336921
725.150	74.967388
725.358	74.776416
725.566	75.041093
725.773	75.475741
725.981	75.858681
726.189	76.081379
726.396	76.267765
726.604	76.363273
726.812	76.269298
727.019	76.033441
727.227	75.869047
727.435	75.894596
727.642	75.825297
727.850	75.547381
728.057	75.291243
728.265	74.990334
728.472	74.693167
728.680	74.577827
728.887	74.417431
729.095	74.118662
729.302	73.864550
729.509	73.644645
729.717	73.550580
729.924	73.746176
730.132	74.051800
730.339	74.027235
730.546	73.961562
730.753	74.104934
730.961	74.029060
731.168	73.962910
731.375	74.201896
731.583	74.355449
731.790	74.316315
731.997	74.310411
732.204	74.088332
732.411	73.627157
732.618	73.481166
732.826	73.450260
733.033	73.204405
733.240	73.063696
733.447	73.032326
733.654	72.916290
733.861	72.751504
734.068	72.368141
734.275	71.732663
734.482	71.149747
734.689	70.778036
734.896	70.743266
735.103	71.117189
735.310	71.501849
735.517	71.550211
735.724	71.405281
735.931	71.187109
736.137	71.083578
736.344	71.442341
736.551	71.981814
736.758	72.133077
736.965	72.154323
737.171	71.650056
737.378	70.666768
737.585	69.790913
737.792	69.263892
737.998	69.042997
738.205	69.015529
738.412	68.844462
738.618	68.328374
738.825	67.402296
739.032	66.610443
739.238	65.918036
739.445	65.353437
739.651	64.918980
739.858	64.676771
740.064	64.550600
740.271	64.061944
740.477	63.105556
740.684	62.241270
740.890	61.703953
741.097	61.506794
741.303	61.519583
741.510	61.534271
741.716	61.560734
741.922	61.676034
742.129	61.707038
742.335	61.573252
742.541	61.542966
742.748	61.842565
742.954	62.264372
743.160	62.536152
743.366	62.759653
743.573	62.865926
743.779	62.807220
743.985	62.702560
744.191	62.588386
744.397	62.635214
744.604	62.667696
744.810	62.490442
745.016	62.176312
745.222	61.901921
745.428	61.579630
745.634	61.175474
745.840	60.721839
746.046	60.215958
746.252	59.842958
746.458	59.416211
746.664	58.797088
746.870	58.065643
747.076	57.550150
747.282	57.380441
747.488	57.120367
747.694	56.806631
747.900	56.545854
748.105	56.417463
748.311	56.431235
748.517	56.320493
748.723	56.218789
748.929	56.013504
749.134	56.053838
749.340	56.124283
749.546	55.959352
749.752	55.791570
749.957	55.728669
750.163	55.683222
750.369	55.524210
750.574	55.258124
750.780	54.869725
750.985	54.535073
751.191	54.346138
751.397	54.045689
751.602	53.643335
751.808	53.200106
752.013	52.606538
752.219	51.963169
752.424	51.395383
752.630	50.945539
752.835	50.434286
753.041	49.916936
753.246	49.349026
753.451	48.848446
753.657	48.337324
753.862	47.984645
754.067	47.600264
754.273	47.395994
754.478	47.279748
754.683	47.197623
754.889	46.925171
755.094	46.645379
755.299	46.636974
755.504	46.563370
755.710	46.248995
755.915	45.916673
756.120	45.634494
756.325	45.393330
756.530	45.070981
756.735	44.691132
756.940	44.180044
757.146	43.827025
757.351	43.720395
757.556	43.518032
757.761	43.344309
757.966	43.282509
758.171	42.987654
758.376	42.387235
758.581	41.796600
758.786	41.381342
758.990	40.920657
759.195	40.578439
759.400	40.145315
759.605	39.371484
759.810	38.615895
760.015	37.932519
760.220	37.160768
760.424	36.679502
760.629	36.421614
760.834	36.252045
761.039	36.027107
761.244	35.900863
761.448	35.652179
761.653	35.611140
761.858	35.637660
762.062	35.527154
762.267	35.337629
762.472	35.079821
762.676	34.722386
762.881	34.268615
763.085	33.702477
763.290	33.145931
763.494	32.477131
763.699	31.944518
763.903	31.264191
764.108	30.726766
764.312	30.155772
764.517	29.717419
764.721	29.451994
764.926	29.215922
765.130	28.989016
765.335	28.742832
765.539	28.386937
765.743	28.090101
765.948	27.859830
766.152	27.602854
766.356	27.296312
766.560	27.126220
766.765	26.771597
766.969	26.331392
767.173	25.849440
767.377	25.551751
767.582	25.355632
767.786	25.115041
767.990	24.916129
768.194	24.509352
768.398	24.196677
768.602	23.881321
768.806	23.578346
769.010	23.340034
769.215	23.044962
769.419	22.797994
769.623	22.480760
769.827	22.134415
770.031	21.824881
770.234	21.521070
770.438	21.222472
770.642	20.825198
770.846	20.524643
771.050	20.266870
771.254	20.074922
771.458	19.928119
771.662	19.742090
771.866	19.542062
772.069	19.410025
772.273	19.260499
772.477	18.991242
772.681	18.783400
772.885	18.660440
773.088	18.430874
773.292	18.028490
773.496	17.657848
773.699	17.394159
773.903	17.074235
774.107	16.680845
774.310	16.301372
774.514	15.996116
774.717	15.756079
774.921	15.497977
775.124	15.312087
775.328	15.184708
775.531	15.194333
775.735	15.167458
775.938	15.205115
776.142	15.216109
776.345	15.229085
776.549	15.171537
776.752	15.065095
776.956	15.041755
777.159	15.038444
777.362	14.900172
777.566	14.931507
777.769	14.864537
777.972	14.737575
778.176	14.510796
778.379	14.405662
778.582	14.291071
778.785	14.385138
778.989	14.399025
779.192	14.307094
779.395	14.278522
779.598	14.239368
779.801	14.138897
780.004	14.101731
780.207	14.025467
780.411	13.876303
780.614	13.778846
780.817	13.835643
781.020	13.673941
781.223	13.734522
781.426	13.859613
781.629	13.886903
781.832	13.922678
782.035	13.912416
782.238	13.910769
782.440	14.083679
782.643	14.274769
782.846	14.300239
783.049	14.263691
783.252	14.271440
783.455	14.278909
783.658	14.233402
783.860	14.240335
784.063	14.394454
784.266	14.562962
784.469	14.791576
784.671	14.864436
784.874	14.966502
785.077	15.251450
785.279	15.481503
785.482	15.801755
785.685	15.904803
785.887	16.044207
786.090	16.239466
786.293	16.344825
786.495	16.372623
786.698	16.461147
786.900	16.665479
787.103	16.907829
787.305	17.103904
787.508	17.341601
787.710	17.527220
787.913	17.775404
788.115	18.127603
788.317	18.521698
788.520	18.883522
788.722	19.352097
788.924	19.664102
789.127	19.858252
789.329	20.063052
789.531	20.248817
789.734	20.450705
789.936	20.557121
790.138	20.673741
790.340	20.723120
790.543	20.762835
790.745	20.830128
790.947	20.964688
791.149	21.192775
791.351	21.419526
791.553	21.633118
791.756	21.865415
791.958	22.185072
792.160	22.714876
792.362	23.277791
792.564	23.716830
792.766	24.065070
792.968	24.443053
793.170	24.602349
793.372	24.628436
793.574	24.772224
793.776	24.938948
793.978	25.127681
794.180	25.264154
794.381	25.336303
794.583	25.397876
794.785	25.598594
794.987	25.849756
795.189	26.107195
795.391	26.506708
795.592	26.968899
795.794	27.359710
795.996	27.829100
796.198	28.347677
796.399	28.735878
796.601	28.982830
796.803	29.231346
797.004	29.442839
797.206	29.670033
797.407	29.848350
797.609	30.017697
797.811	30.091964
798.012	30.173096
798.214	30.013054
798.415	29.842638
798.617	29.986677
798.818	30.243659
799.020	30.471589
799.221	30.791454
799.423	30.978556
799.624	31.033772
799.826	31.136057
800.027	31.529902
800.228	31.991351
800.430	32.665646
800.631	33.312147
800.832	33.635339
801.034	33.890017
801.235	34.274649
801.436	34.592724
801.637	35.297954
801.839	36.332204
802.040	37.194946
802.241	37.893872
802.442	38.376560
802.643	38.667320
802.844	38.818267
803.046	39.070387
803.247	39.236966
803.448	39.356339
803.649	39.631505
803.850	39.600265
804.051	39.341778
804.252	39.252570
804.453	39.131535
804.654	39.138470
804.855	39.246644
805.056	39.509347
805.257	39.817363
805.458	40.161705
805.659	40.320331
805.859	40.253643
806.060	40.180840
806.261	40.272863
806.462	40.530214
806.663	40.943670
806.864	41.414497
807.064	41.885254
807.265	42.273968
807.466	42.746112
807.667	43.402708
807.867	44.120662
808.068	44.744683
808.269	45.298778
808.469	45.709923
808.670	45.952539
808.870	46.171206
809.071	46.443628
809.272	46.694173
809.472	46.900263
809.673	46.851809
809.873	46.621923
810.074	46.559673
810.274	46.921075
810.475	47.365412
810.675	47.792429
810.876	48.236411
811.076	48.527313
811.276	48.708277
811.477	48.919018
811.677	49.285851
811.878	49.728355
812.078	50.235339
812.278	50.680812
812.479	50.924807
812.679	51.161997
812.879	51.399089
813.079	51.517029
813.280	51.591061
813.480	51.583138
813.680	51.333381
813.880	50.985108
814.080	50.755401
814.280	50.747702
814.480	50.932003
814.681	51.035428
814.881	51.096958
815.081	51.194624
815.281	51.473932
815.481	51.864051
815.681	52.497010
815.881	53.539056
816.081	54.509088
816.281	55.184347
816.481	55.662346
816.681	55.885920
816.880	56.204393
817.080	56.476086
817.280	56.580386
817.480	56.533770
817.680	56.364415
817.880	56.148323
818.080	55.701525
818.279	55.414971
818.479	55.358099
818.679	55.307385
818.879	55.334958
819.078	55.205384
819.278	55.248988
819.478	55.415381
819.677	55.702825
819.877	56.154635
820.077	56.494750
820.276	56.950124
820.476	57.290315
820.675	57.517661
820.875	57.709900
821.074	57.900107
821.274	58.243939
821.473	58.613608
821.673	59.010686
821.872	59.402514
822.072	59.938112
822.271	60.547216
822.471	60.990635
822.670	61.287826
822.869	61.759271
823.069	62.419808
823.268	63.079713
823.467	63.632981
823.667	63.780460
823.866	63.736715
824.065	63.751664
824.265	63.433492
824.464	62.841953
824.663	62.305535
824.862	62.059148
825.061	61.840005
825.261	61.153898
825.460	60.341477
825.659	59.564957
825.858	59.274707
826.057	59.739677
826.256	60.193605
826.455	60.675409
826.654	61.424749
826.853	62.139135
827.052	62.388881
827.251	62.581702
827.450	62.951304
827.649	63.255784
827.848	63.886458
828.047	64.365096
828.246	64.040851
828.445	63.474116
828.644	62.976890
828.843	62.473724
829.041	62.050014
829.240	62.125839
829.439	62.321821
829.638	62.522585
829.836	62.731887
830.035	62.716771
830.234	62.643867
830.433	63.065784
830.631	63.829185
830.830	64.880482
831.029	65.756241
831.227	66.630301
831.426	67.534130
831.624	67.947296
831.823	68.020003
832.022	68.161647
832.220	68.123166
832.419	68.080822
832.617	67.918928
832.816	67.463487
833.014	66.853853
833.213	66.619901
833.411	66.501780
833.609	66.329783
833.808	66.328396
834.006	66.518871
834.205	66.605968
834.403	66.940168
834.601	67.244213
834.800	67.585077
834.998	67.949703
835.196	67.965265
835.394	67.727764
835.593	67.384384
835.791	66.839425
835.989	66.249005
836.187	65.726560
836.385	65.299149
836.584	65.041220
836.782	65.191314
836.980	65.280782
837.178	65.516348
837.376	65.877280
837.574	66.161770
837.772	66.444633
837.970	66.785054
838.168	67.107789
838.366	67.558237
838.564	68.155496
838.762	68.269366
838.960	67.845067
839.158	67.255246
839.356	66.570615
839.554	66.111754
839.752	65.990236
839.949	65.887205
840.147	65.932593
840.345	66.378688
840.543	66.324421
840.741	65.849211
840.938	65.528554
841.136	65.269291
841.334	65.004632
841.532	64.675803
841.729	64.373786
841.927	64.154956
842.125	64.060703
842.322	63.882943
842.520	63.626845
842.718	64.139479
842.915	65.120999
843.113	66.027366
843.310	66.970641
843.508	67.717401
843.705	68.535087
843.903	69.375426
844.100	69.836498
844.298	70.025122
844.495	70.156916
844.693	70.062168
844.890	69.636320
845.087	69.066896
845.285	68.523538
845.482	68.293161
845.679	68.526539
845.877	68.769796
846.074	68.858789
846.271	69.284961
846.469	69.947634
846.666	70.280197
846.863	70.891008
847.060	71.536477
847.257	71.984522
847.455	72.440720
847.652	72.799363
847.849	73.014234
848.046	73.147010
848.243	73.228459
848.440	73.070277
848.637	72.521239
848.834	72.084528
849.031	71.549831
849.228	70.834189
849.425	70.001959
849.622	69.388401
849.819	69.066785
850.016	69.100489
850.213	69.231158
850.410	69.153653
850.607	68.712749
850.804	68.530612
851.001	68.787486
851.198	68.894124
851.394	69.366723
851.591	70.372140
851.788	71.240324
851.985	71.217385
852.181	70.724772
852.378	69.849386
852.575	69.301907
852.772	69.071302
852.968	69.083105
853.165	68.877455
853.362	68.877778
853.558	69.018639
853.755	69.288772
853.951	69.772748
854.148	70.709264
854.345	71.644606
854.541	72.681527
854.738	73.861580
854.934	74.890957
855.131	75.316749
855.327	75.807295
855.523	76.266807
855.720	76.233068
855.916	75.632466
856.113	74.728958
856.309	73.926108
856.505	73.281564
856.702	72.883024
856.898	72.324320
857.094	72.173053
857.291	72.700181
857.487	73.256090
857.683	73.641341
857.879	74.214287
858.076	75.057598
858.272	75.840073
858.468	76.594650
858.664	77.429695
858.860	78.227543
859.056	78.995166
859.253	79.718339
859.449	80.109945
859.645	80.424903
859.841	80.542078
860.037	80.345858
860.233	79.706715
860.429	79.341614
860.625	78.892026
860.821	78.416385
861.017	78.135913
861.213	77.692289
861.409	77.106575
861.604	76.641801
861.800	76.026223
861.996	75.419858
862.192	75.041134
862.388	74.981201
862.584	74.852571
862.779	74.949229
862.975	75.026835
863.171	74.707672
863.367	74.599760
863.562	74.577171
863.758	74.686119
863.954	74.540027
864.149	74.598823
864.345	74.660503
864.541	74.502161
864.736	74.512728
864.932	74.728997
865.127	74.737121
865.323	75.062963
865.518	75.299932
865.714	75.311060
865.910	75.312068
866.105	75.410020
866.300	75.456102
866.496	75.823733
866.691	76.729401
866.887	77.472454
867.082	77.796358
867.277	78.060576
867.473	78.309739
867.668	78.704649
867.864	78.985785
868.059	78.856495
868.254	78.922065
868.449	78.967273
868.645	78.802832
868.840	78.317350
869.035	77.909791
869.230	78.090079
869.425	78.488755
869.621	78.421551
869.816	77.597940
870.011	76.854279
870.206	76.701012
870.401	77.030854
870.596	77.797405
870.791	78.309503
870.986	78.665189
871.181	78.807241
871.376	78.232189
871.571	77.528319
871.766	77.149870
871.961	77.423652
872.156	77.739513
872.351	77.739957
872.546	77.703664
872.741	77.162501
872.936	76.509819
873.130	76.471979
873.325	76.464338
873.520	76.607437
873.715	76.869015
873.910	77.009941
874.104	76.775202
874.299	76.463527
874.494	76.246579
874.688	76.112964
874.883	76.463036
875.078	77.165998
875.272	77.380621
875.467	77.336191
875.662	77.147660
875.856	77.002897
876.051	77.375401
876.245	78.362588
876.440	79.475653
876.634	80.326920
876.829	80.865321
877.023	80.877408
877.218	80.855985
877.412	80.726481
877.607	80.593801
877.801	80.111297
877.995	79.502913
878.190	78.668488
878.384	77.974788
878.578	77.478053
878.773	77.151809
878.967	76.773774
879.161	76.403107
879.356	76.058412
879.550	75.904885
879.744	75.937391
879.938	76.100133
880.133	76.741874
880.327	77.488269
880.521	77.854301
880.715	78.093979
880.909	78.160224
881.103	78.608060
881.297	79.511201
881.491	80.223948
881.685	80.666181
881.880	81.007325
882.073	81.700175
882.267	81.789333
882.461	81.808598
882.655	82.381274
882.849	82.954582
883.043	83.444629
883.237	83.338017
883.431	82.760773
883.625	82.115425
883.819	81.917825
884.013	82.204698
884.206	82.666191
884.400	83.219397
884.594	83.532388
884.788	83.504926
884.982	83.580279
885.175	83.289624
885.369	82.948956
885.563	82.641182
885.756	82.374194
885.950	81.796250
886.144	80.870028
886.337	80.178397
886.531	79.589273
886.724	79.003482
886.918	78.719671
887.112	78.318259
887.305	78.391074
887.499	78.946338
887.692	79.749425
887.885	80.316181
888.079	80.718677
888.272	81.584997
888.466	82.412173
888.659	82.831587
888.853	82.850272
889.046	82.071794
889.239	81.306325
889.433	80.981644
889.626	80.056790
889.819	78.354638
890.013	77.031166
890.206	76.303934
890.399	75.368432
890.592	74.414292
890.785	74.263093
890.979	74.815261
891.172	75.696711
891.365	76.296198
891.558	76.625965
891.751	76.996568
891.944	77.772638
892.137	78.653383
892.330	79.548811
892.524	80.129074
892.717	80.491599
892.910	80.231826
893.103	79.425208
893.296	78.454098
893.488	77.532252
893.681	76.517313
893.874	75.747689
894.067	75.479012
894.260	75.681549
894.453	75.659799
894.646	75.687715
894.839	75.913513
895.031	76.379084
895.224	77.057417
895.417	77.731678
895.610	78.819308
895.802	79.615615
895.995	80.145974
896.188	80.046000
896.381	79.055723
896.573	78.653734
896.766	79.093286
896.958	79.424838
897.151	79.377195
897.344	79.503630
897.536	79.780112
897.729	79.560740
897.921	79.679377
898.114	79.646788
898.306	79.996752
898.499	80.626332
898.691	81.032706
898.884	80.775636
899.076	80.117972
899.269	79.531356
899.461	78.938188
899.653	78.797973
899.846	78.782419
900.038	78.665675
900.230	78.906023
900.423	79.176383
900.615	79.737040
900.807	79.943344
901.000	80.088916
901.192	80.418014
901.384	80.871354
901.576	80.940047
901.768	80.675243
901.961	81.079770
902.153	81.351878
902.345	81.739284
902.537	82.089908
902.729	81.851759
902.921	81.645252
903.113	81.872507
903.305	82.716370
903.497	83.593637
903.689	84.973579
903.881	86.374266
904.073	87.071449
904.265	87.746900
904.457	88.569176
904.649	89.267685
904.841	90.385046
905.033	91.663289
905.224	92.562290
905.416	92.713814
905.608	92.141928
905.800	91.320753
905.992	90.489523
906.183	89.836465
906.375	89.313835
906.567	88.381123
906.759	87.665545
906.950	87.064751
907.142	86.389249
907.334	85.471604
907.525	84.593821
907.717	84.338744
907.909	83.858690
908.100	83.102385
908.292	82.616544
908.483	82.319682
908.675	81.912032
908.866	81.594989
909.058	81.415237
909.249	80.864601
909.441	80.864465
909.632	81.327592
909.824	81.386632
910.015	81.566280
910.206	82.191059
910.398	82.564225
910.589	82.662343
910.780	83.090991
910.972	83.418460
911.163	83.308446
911.354	83.044261
911.546	82.585985
911.737	82.200757
911.928	82.182282
912.119	82.188710
912.310	82.310289
912.502	82.395245
912.693	82.548522
912.884	82.410207
913.075	81.859425
913.266	81.679668
913.457	81.984632
913.648	82.122472
913.839	81.618258
914.030	81.271313
914.221	81.266861
914.412	81.560012
914.603	82.027327
914.794	82.403485
914.985	83.234244
915.176	84.471957
915.367	85.286892
915.558	86.033772
915.749	86.973566
915.940	88.164671
916.130	89.583828
916.321	91.028859
916.512	91.444884
916.703	91.474257
916.893	91.672195
917.084	91.828309
917.275	92.237628
917.466	92.470688
917.656	92.657701
917.847	92.844893
918.038	92.214565
918.228	91.194545
918.419	90.029115
918.609	88.969628
918.800	88.551879
918.990	88.202846
919.181	87.420747
919.372	86.316733
919.562	85.682275
919.753	84.966671
919.943	84.269289
920.133	84.442714
920.324	84.996579
920.514	85.273579
920.705	85.746926
920.895	85.343889
921.085	84.745373
921.276	84.571612
921.466	84.729172
921.656	84.880570
921.847	84.691814
922.037	83.909512
922.227	83.349665
922.417	82.552333
922.608	82.023240
922.798	81.797838
922.988	82.194609
923.178	82.749384
923.368	83.496236
923.558	83.927040
923.748	83.846208
923.939	83.711967
924.129	83.622689
924.319	83.230419
924.509	83.681591
924.699	84.304007
924.889	84.388979
925.079	84.238753
925.269	83.999382
925.459	83.477495
925.648	83.166078
925.838	83.453512
926.028	84.186901
926.218	85.541476
926.408	86.812267
926.598	87.208007
926.788	87.101997
926.977	86.835865
927.167	86.915847
927.357	87.425041
927.547	87.894699
927.736	88.309041
927.926	88.048741
928.116	87.563633
928.305	87.123946
928.495	86.430410
928.685	85.565513
928.874	85.428686
929.064	85.867864
929.253	86.338365
929.443	86.731680
929.633	87.156704
929.822	86.720170
930.012	86.583542
930.201	86.867251
930.391	86.618080
930.580	86.749935
930.769	87.125005
930.959	87.421946
931.148	87.763674
931.338	87.767551
931.527	87.374131
931.716	86.857765
931.906	86.659093
932.095	86.332328
932.284	85.804615
932.474	85.981600
932.663	86.433091
932.852	86.965346
933.041	86.780166
933.230	86.553718
933.420	86.739516
933.609	86.897285
933.798	86.871746
933.987	86.937575
934.176	87.328937
934.365	87.506073
934.554	87.415460
934.743	87.163733
934.932	86.852503
935.121	86.702090
935.310	86.158757
935.499	85.411043
935.688	85.016837
935.877	85.317846
936.066	86.120091
936.255	87.015147
936.444	88.062674
936.633	88.610234
936.822	89.353824
937.010	89.966606
937.199	90.490828
937.388	91.161568
937.577	91.499284
937.766	91.032723
937.954	90.172440
938.143	89.425948
938.332	88.561440
938.520	87.507149
938.709	86.988016
938.898	86.463952
939.086	85.552713
939.275	84.508262
939.464	83.716246
939.652	83.376280
939.841	83.216352
940.029	83.009133
940.218	83.175668
940.406	83.582263
940.595	84.001967
940.783	84.189494
940.972	83.731786
941.160	83.879443
941.349	84.155205
941.537	84.274016
941.725	84.596386
941.914	85.107622
942.102	85.246867
942.290	84.926346
942.479	84.313067
942.667	83.800938
942.855	83.525311
943.043	83.274054
943.232	82.849097
943.420	83.181075
943.608	83.995633
943.796	83.935660
943.984	83.616891
944.172	83.312226
944.361	82.664664
944.549	82.317642
944.737	82.085069
944.925	82.150268
945.113	82.480109
945.301	82.724672
945.489	82.435011
945.677	81.426279
945.865	80.830629
946.053	80.721467
946.241	81.138056
946.429	81.896464
946.617	82.185722
946.805	82.488413
946.992	82.886130
947.180	83.276441
947.368	83.305836
947.556	83.406668
947.744	83.654004
947.931	83.873650
948.119	84.024050
948.307	84.209451
948.495	84.027118
948.682	83.903360
948.870	84.486840
949.058	84.901407
949.245	85.346275
949.433	86.032918
949.621	86.547496
949.808	86.878000
949.996	87.295155
950.183	87.938438
950.371	87.876978
950.558	88.235599
950.746	89.357955
950.933	89.492987
951.121	89.074693
951.308	88.603892
951.496	87.977310
951.683	87.590758
951.870	87.205325
952.058	86.980848
952.245	86.998921
952.433	87.196571
952.620	87.243044
952.807	86.555123
952.994	86.017791
953.182	86.036892
953.369	85.597332
953.556	85.027024
953.743	84.078850
953.931	84.004351
954.118	84.001309
954.305	83.264385
954.492	82.622834
954.679	82.725205
954.866	83.132502
955.053	83.373116
955.240	83.070987
955.427	83.093805
955.615	83.778193
955.802	85.073762
955.989	86.018090
956.175	86.644868
956.362	87.374532
956.549	88.176284
956.736	88.248917
956.923	87.462623
957.110	86.642314
957.297	85.765892
957.484	85.057982
957.671	84.294272
957.857	82.786841
958.044	81.446328
958.231	80.454494
958.418	79.807116
958.604	79.893598
958.791	79.987827
958.978	79.988229
959.165	80.306558
959.351	80.678286
959.538	81.096906
959.724	81.702387
959.911	82.512061
960.098	82.770394
960.284	82.831145
960.471	82.942824
960.657	82.941582
960.844	82.694584
961.030	82.943614
961.217	83.524812
961.403	84.194087
961.590	84.703840
961.776	84.929614
961.963	85.543977
962.149	86.597263
962.335	87.607177
962.522	88.619818
962.708	89.519165
962.894	90.411342
963.081	91.888355
963.267	92.999792
963.453	93.930323
963.639	94.566861
963.826	94.874710
964.012	94.070132
964.198	92.549279
964.384	91.536178
964.570	90.816925
964.756	89.084198
964.943	87.671214
965.129	85.978016
965.315	84.796567
965.501	83.636068
965.687	82.802955
965.873	81.968031
966.059	82.135902
966.245	83.068933
966.431	82.806337
966.617	82.872231
966.803	83.537788
966.989	84.129689
967.174	84.376222
967.360	83.923786
967.546	83.883282
967.732	83.934351
967.918	84.142513
968.104	84.285300
968.289	83.963047
968.475	84.360757
968.661	84.021621
968.847	83.079304
969.032	82.614725
969.218	82.884369
969.404	83.406106
969.589	84.259570
969.775	85.437596
969.961	86.464651
970.146	87.013342
970.332	87.560745
970.517	88.795827
970.703	89.920126
970.888	91.569692
971.074	92.438295
971.260	92.612353
971.445	92.547883
971.630	91.859566
971.816	91.073287
972.001	90.272935
972.187	89.763998
972.372	89.698564
972.557	88.860277
972.743	88.548837
972.928	88.672849
973.113	88.483573
973.299	88.688902
973.484	89.085517
973.669	89.839005
973.854	89.990078
974.040	90.530325
974.225	90.659697
974.410	91.199331
974.595	91.670804
974.780	91.458628
974.965	90.945777
975.151	90.932351
975.336	90.843159
975.521	90.724875
975.706	90.585657
975.891	90.614484
976.076	90.790416
976.261	91.181821
976.446	90.693668
976.631	90.390901
976.816	89.815766
977.001	89.100665
977.186	89.264106
977.370	88.409408
977.555	87.810948
977.740	87.276686
977.925	86.658785
978.110	85.516449
978.295	85.317460
978.479	85.654616
978.664	86.268478
978.849	87.215494
979.034	87.932981
979.218	87.513717
979.403	88.683847
979.588	89.507256
979.772	89.162104
979.957	88.738595
980.141	88.829361
980.326	88.531540
980.511	87.494062
980.695	85.616247
980.880	84.250415
981.064	83.669444
981.249	83.392717
981.433	82.289277
981.618	81.461245
981.802	81.161283
981.987	81.193497
982.171	81.733140
982.355	82.043631
982.540	82.974287
982.724	84.618661
982.908	85.892032
983.093	86.516390
983.277	87.980836
983.461	89.757775
983.646	90.900105
983.830	92.628811
984.014	93.977929
984.198	93.929701
984.382	93.880282
984.567	94.146759
984.751	94.199789
984.935	93.823318
985.119	93.100292
985.303	91.988386
985.487	90.940667
985.671	90.307408
985.855	89.450540
986.039	89.534359
986.223	90.302019
986.407	91.215657
986.591	90.876758
986.775	91.336519
986.959	92.016208
987.143	92.029660
987.327	92.148630
987.511	92.033834
987.695	91.285244
987.879	90.713414
988.062	90.267475
988.246	89.803081
988.430	89.176937
988.614	89.185033
988.797	88.042671
988.981	87.433652
989.165	88.160108
989.349	88.076562
989.532	87.964196
989.716	88.139142
989.900	88.657400
990.083	88.947324
990.267	89.096942
990.450	90.086921
990.634	91.123328
990.817	92.467772
991.001	93.707863
991.184	94.515246
991.368	95.603400
991.551	97.113161
991.735	98.829249
991.918	99.571098
992.102	99.880139
992.285	99.989497
992.469	99.105274
992.652	98.097527
992.835	97.277125
993.019	96.245705
993.202	96.339378
993.385	96.663535
993.568	95.790445
993.752	94.888006
993.935	94.501773
994.118	94.043043
994.301	93.617799
994.484	93.134986
994.668	93.465899
994.851	93.929513
995.034	94.174235
995.217	93.018640
995.400	91.746064
995.583	91.336102
995.766	91.685775
995.949	91.652893
996.132	92.077052
996.315	93.070316
996.498	93.411655
996.681	93.696368
996.864	93.173899
997.047	92.792593
997.230	92.286968
997.413	91.775970
997.596	91.614004
997.778	91.089961
997.961	91.505073
998.144	91.430042
998.327	90.490550
998.510	89.725796
998.692	88.673174
998.875	88.208782
999.058	87.923267
999.241	88.920794
999.423	89.448615
999.606	89.416565
999.789	89.316954
999.971	88.244981
1000.154	87.460027
1000.336	87.310058
1000.519	87.391036
1000.701	87.791844
1000.884	88.514366
1001.067	88.779216
1001.249	88.201908
1001.431	87.657031
1001.614	87.560447
1001.796	87.277638
1001.979	87.709133
1002.161	88.512466
1002.344	88.666583
1002.526	88.967490
1002.708	87.853247
1002.891	87.176857
1003.073	87.449951
1003.255	87.823103
1003.438	89.409361
1003.620	90.294289
1003.802	91.164065
1003.984	91.961949
1004.166	91.821134
1004.349	92.047913
1004.531	92.839898
1004.713	94.341248
1004.895	94.901507
1005.077	94.279211
1005.259	94.957757
1005.441	94.355099
1005.623	94.075581
1005.805	93.903522
1005.987	92.943432
1006.169	93.150421
1006.351	93.856962
1006.533	93.734554
1006.715	93.109782
1006.897	93.067646
1007.079	94.110578
1007.261	93.783011
1007.443	93.356817
1007.625	92.745358
1007.806	92.728676
1007.988	93.104372
1008.170	93.471682
1008.352	93.182028
1008.534	92.745833
1008.715	93.907955
1008.897	94.398398
1009.079	94.363686
1009.260	94.155053
1009.442	94.251466
1009.624	94.645514
1009.805	94.728598
1009.987	94.771584
1010.169	94.355458
1010.350	93.996236
1010.532	93.959515
1010.713	92.841719
1010.895	92.189512
1011.076	91.308501
1011.258	91.241356
1011.439	92.005518
1011.621	92.573419
1011.802	92.510221
1011.983	92.561465
1012.165	92.837866
1012.346	92.967470
1012.527	92.815056
1012.709	92.407014
1012.890	92.867390
1013.071	93.281028
1013.253	92.807626
1013.434	92.294413
1013.615	92.098424
1013.796	91.870324
1013.978	92.081340
1014.159	92.100044
1014.340	92.285905
1014.521	92.867470
1014.702	93.824422
1014.883	93.501685
1015.064	92.950582
1015.245	92.700594
1015.427	92.895684
1015.608	92.954481
1015.789	93.458083
1015.970	93.170114
1016.151	92.965123
1016.332	92.887996
1016.512	92.336977
1016.693	92.391377
1016.874	92.564948
1017.055	93.704460
1017.236	94.475253
1017.417	94.926183
1017.598	94.849330
1017.779	94.491405
1017.959	94.482270
1018.140	93.944575
1018.321	93.925456
1018.502	93.921929
1018.682	93.256276
1018.863	93.274814
1019.044	92.768816
1019.224	93.185436
1019.405	93.121752
1019.586	92.619787
1019.766	92.328498
1019.947	92.849360
1020.127	93.218909
1020.308	92.950426
1020.488	93.798826
1020.669	94.547504
1020.849	95.180467
1021.030	94.863557
1021.210	93.949071
1021.391	93.552022
1021.571	94.741859
1021.752	95.701452
1021.932	94.538491
1022.112	94.262156
1022.293	94.584371
1022.473	93.357930
1022.653	92.918913
1022.834	92.760834
1023.014	93.062532
1023.194	93.319005
1023.374	93.700675
1023.555	93.150661
1023.735	92.269224
1023.915	92.851471
1024.095	92.402201
1024.275	91.464390
1024.455	92.635564
1024.635	93.015324
1024.816	92.321041
1024.996	92.521561
1025.176	92.509392
1025.356	91.210633
1025.536	90.863473
1025.716	90.398457
1025.896	89.627978
1026.076	90.323614
1026.256	91.675719
1026.436	91.568377
1026.615	91.088680
1026.795	90.781460
1026.975	91.043186
1027.155	91.576056
1027.335	91.735950
1027.515	91.257139
1027.695	91.545946
1027.874	93.019453
1028.054	92.760429
1028.234	92.124897
1028.413	91.847964
1028.593	92.764519
1028.773	93.918287
1028.953	93.797772
1029.132	93.157582
1029.312	94.841904
1029.491	96.083751
1029.671	97.353615
1029.851	97.279566
1030.030	97.462851
1030.210	98.330503
1030.389	98.902099
1030.569	98.555245
1030.748	98.034197
1030.928	97.533701
1031.107	96.878397
1031.286	95.693476
1031.466	95.417844
1031.645	94.456381
1031.825	94.084199
1032.004	94.542914
1032.183	94.235079
1032.363	93.956925
1032.542	94.127007
1032.721	94.237678
1032.900	93.352715
1033.080	93.642232
1033.259	93.120760
1033.438	91.992771
1033.617	92.238902
1033.796	91.835868
1033.975	91.023685
1034.155	90.217705
1034.334	89.793312
1034.513	91.039319
1034.692	91.684372
1034.871	93.110176
1035.050	92.204645
1035.229	92.859031
1035.408	92.942858
1035.587	93.041657
1035.766	93.996984
1035.945	95.248390
1036.124	95.231291
1036.303	94.676036
1036.481	92.492757
1036.660	91.135402
1036.839	91.911565
1037.018	94.252641
1037.197	94.063734
1037.376	94.665309
1037.554	95.759392
1037.733	95.416015
1037.912	95.086876
1038.091	95.169391
1038.269	95.780389
1038.448	95.437384
1038.627	96.315141
1038.805	93.759688
1038.984	92.487597
1039.162	92.127415
1039.341	91.545710
1039.520	90.287019
1039.698	90.244103
1039.877	90.475069
1040.055	91.099985
1040.234	91.510617
1040.412	92.576617
1040.591	92.325480
1040.769	94.153819
1040.947	94.744643
1041.126	94.945072
1041.304	95.555099
1041.483	94.648043
1041.661	94.543422
1041.839	94.083183
1042.017	92.181502
1042.196	91.678064
1042.374	91.436991
1042.552	90.966394
1042.730	89.503983
1042.909	88.942076
1043.087	90.352316
1043.265	90.863682
1043.443	91.697050
1043.621	91.245123
1043.799	90.177536
1043.978	91.587640
1044.156	91.207555
1044.334	90.655312
1044.512	90.742866
1044.690	91.338944
1044.868	92.372789
1045.046	91.870357
1045.224	91.332319
1045.402	91.626085
1045.580	92.746450
1045.758	93.142640
1045.935	92.296962
1046.113	92.645316
1046.291	91.845055
1046.469	90.950209
1046.647	90.576269
1046.825	89.943547
1047.002	89.173906
1047.180	88.639736
1047.358	87.963033
1047.536	86.311712
1047.713	86.782234
1047.891	88.020853
1048.069	88.042187
1048.246	88.243037
1048.424	88.729305
1048.602	89.159127
1048.779	89.936086
1048.957	90.119588
1049.134	90.612846
1049.312	91.043232
1049.489	90.994403
1049.667	90.758954
1049.844	90.553097
1050.022	90.614573
1050.199	91.763860
1050.377	92.095111
1050.554	92.020086
1050.731	91.122887
1050.909	90.639861
1051.086	90.054999
1051.263	90.407643
1051.441	91.983703
1051.618	92.061752
1051.795	92.388696
1051.973	91.848675
1052.150	91.318352
1052.327	91.047253
1052.504	91.363404
1052.681	91.494634
1052.859	91.585982
1053.036	92.134517
1053.213	92.112695
1053.390	91.434266
1053.567	91.929370
1053.744	91.301874
1053.921	91.403627
1054.098	91.135529
1054.275	91.720202
1054.452	91.382832
1054.629	90.742870
1054.806	90.521213
1054.983	89.863800
1055.160	89.929527
1055.337	90.334941
1055.514	89.349965
1055.691	89.098573
1055.868	89.862431
1056.044	90.297243
1056.221	89.840863
1056.398	90.083449
1056.575	90.417505
1056.751	91.284328
1056.928	91.795983
1057.105	91.717199
1057.282	91.979722
1057.458	93.465764
1057.635	93.808782
1057.812	92.528219
1057.988	91.216940
1058.165	91.374027
1058.341	91.391808
1058.518	90.807265
1058.694	89.670248
1058.871	89.417678
1059.047	89.158732
1059.224	88.864024
1059.401	87.963257
1059.577	88.097310
1059.753	88.821157
1059.930	89.907946
1060.106	89.538076
1060.282	88.782169
1060.459	89.550302
1060.635	89.767096
1060.812	90.248347
1060.988	90.933795
1061.164	90.538239
1061.340	90.166492
1061.517	88.959217
1061.693	88.324311
1061.869	87.923297
1062.045	88.123320
1062.221	89.154171
1062.398	89.650415
1062.574	90.028873
1062.750	90.140818
1062.926	88.921143
1063.102	88.809536
1063.278	88.705273
1063.454	88.765249
1063.630	88.661277
1063.806	88.928334
1063.982	89.383129
1064.158	88.450624
1064.334	88.148281
1064.510	88.597067
1064.686	88.036566
1064.862	88.729197
1065.038	89.262127
1065.214	89.097841
1065.389	90.224398
1065.565	89.918409
1065.741	89.256974
1065.917	88.967794
1066.093	88.888398
1066.268	87.959421
1066.444	86.841147
1066.620	86.445553
1066.795	86.186560
1066.971	86.105141
1067.147	86.564935
1067.322	85.922733
1067.498	86.467632
1067.673	86.709578
1067.849	86.116729
1068.025	86.104186
1068.200	86.251644
1068.376	86.261535
1068.551	86.361656
1068.727	86.681977
1068.902	86.189048
1069.078	85.105452
1069.253	85.034183
1069.428	84.732518
1069.604	84.681249
1069.779	85.587442
1069.954	86.023757
1070.130	86.407348
1070.305	87.483908
1070.480	88.114450
1070.656	87.924120
1070.831	88.243056
1071.006	89.300634
1071.181	89.154170
1071.357	89.934160
1071.532	90.619431
1071.707	90.464884
1071.882	90.412485
1072.057	90.038881
1072.232	89.121886
1072.407	88.147156
1072.582	87.508543
1072.757	87.803923
1072.932	87.188242
1073.107	86.965119
1073.282	86.454611
1073.457	85.754564
1073.632	85.096672
1073.807	83.787792
1073.982	83.707864
1074.157	83.674856
1074.332	83.613514
1074.507	83.216887
1074.682	81.856738
1074.856	82.297179
1075.031	83.512207
1075.206	83.945495
1075.381	83.743719
1075.556	83.315932
1075.730	84.671049
1075.905	85.032886
1076.080	84.969627
1076.254	85.008055
1076.429	85.263752
1076.604	86.376752
1076.778	86.596035
1076.953	85.665403
1077.127	84.815693
1077.302	84.730391
1077.477	85.237823
1077.651	84.823255
1077.826	84.686461
1078.000	85.214689
1078.175	85.450432
1078.349	86.133827
1078.523	86.094128
1078.698	85.861743
1078.872	85.926595
1079.047	86.434147
1079.221	87.249657
1079.395	87.888706
1079.570	88.128687
1079.744	87.356095
1079.918	86.238320
1080.092	86.106368
1080.267	85.419058
1080.441	84.700188
1080.615	84.299491
1080.789	83.964285
1080.963	83.047606
1081.137	82.316020
1081.312	81.271602
1081.486	80.664256
1081.660	80.742372
1081.834	80.967921
1082.008	80.891012
1082.182	81.226420
1082.356	81.653539
1082.530	82.028598
1082.704	82.129217
1082.878	83.036475
1083.052	83.570944
1083.226	83.333010
1083.400	82.874804
1083.573	82.718759
1083.747	82.569472
1083.921	82.722926
1084.095	82.470000
1084.269	81.418395
1084.443	80.768259
1084.616	81.133345
1084.790	80.981524
1084.964	80.285576
1085.138	80.666046
1085.311	81.582247
1085.485	81.809206
1085.659	81.654874
1085.832	81.919552
1086.006	81.968763
1086.179	83.031005
1086.353	83.066843
1086.527	83.436275
1086.700	83.783633
1086.874	84.122787
1087.047	83.844994
1087.221	83.025176
1087.394	83.042682
1087.568	83.810961
1087.741	83.310890
1087.914	82.888285
1088.088	82.188509
1088.261	81.596148
1088.435	79.765683
1088.608	78.267904
1088.781	77.977947
1088.954	78.469282
1089.128	79.107031
1089.301	79.100834
1089.474	78.402539
1089.647	77.572826
1089.821	77.005616
1089.994	76.860681
1090.167	77.729528
1090.340	78.753920
1090.513	79.480561
1090.686	80.253394
1090.859	80.277640
1091.032	79.504058
1091.206	79.211118
1091.379	79.185406
1091.552	79.685832
1091.725	80.032321
1091.898	79.862048
1092.071	79.434129
1092.244	79.096549
1092.416	79.216418
1092.589	78.509210
1092.762	77.782564
1092.935	78.248723
1093.108	78.643484
1093.281	78.280821
1093.453	78.100505
1093.626	77.956345
1093.799	77.697631
1093.972	77.970714
1094.145	78.679403
1094.317	79.113616
1094.490	79.508276
1094.663	80.381627
1094.835	80.761245
1095.008	81.092273
1095.181	82.271770
1095.353	82.931127
1095.526	83.265368
1095.698	83.423385
1095.871	82.616752
1096.043	82.307151
1096.216	81.980826
1096.388	81.571812
1096.561	81.253941
1096.733	80.904694
1096.906	80.365825
1097.078	79.379191
1097.250	79.698526
1097.423	79.923872
1097.595	80.408860
1097.768	80.529374
1097.940	79.984679
1098.112	79.488568
1098.284	79.555345
1098.457	79.161471
1098.629	78.839849
1098.801	78.783369
1098.973	78.956816
1099.146	78.493238
1099.318	77.690319
1099.490	77.430573
1099.662	77.567045
1099.834	77.253562
1100.006	77.362865
1100.178	77.515034
1100.350	77.093461
1100.522	77.229206
1100.694	76.974331
1100.866	76.419239
1101.038	76.291766
1101.210	77.152620
1101.382	77.125361
1101.554	76.674218
1101.726	77.212825
1101.898	77.835260
1102.070	77.672915
1102.241	78.468294
1102.413	78.710332
1102.585	78.678037
1102.757	78.599800
1102.929	78.127226
1103.100	77.729542
1103.272	77.360797
1103.444	77.335811
1103.616	76.833286
1103.787	75.854523
1103.959	75.377590
1104.130	74.818347
1104.302	73.713808
1104.474	73.114400
1104.645	73.180635
1104.817	72.751138
1104.988	71.931384
1105.160	71.919412
1105.331	71.719878
1105.503	71.516437
1105.674	71.452477
1105.846	71.581736
1106.017	72.105227
1106.189	72.630928
1106.360	72.690832
1106.531	73.051014
1106.703	73.182357
1106.874	73.556614
1107.045	73.590049
1107.217	73.845655
1107.388	73.958374
1107.559	73.463731
1107.730	72.739660
1107.902	71.795762
1108.073	71.763982
1108.244	71.804450
1108.415	71.015195
1108.586	70.884433
1108.757	69.929156
1108.929	69.258199
1109.100	68.598758
1109.271	67.998395
1109.442	67.748608
1109.613	67.390950
1109.784	67.181550
1109.955	67.125197
1110.126	67.220397
1110.297	67.505379
1110.468	67.355875
1110.639	67.652701
1110.809	67.895063
1110.980	68.276573
1111.151	68.661376
1111.322	68.949387
1111.493	69.377478
1111.664	69.776905
1111.834	69.659131
1112.005	69.668965
1112.176	69.855972
1112.347	70.330369
1112.517	70.954758
1112.688	70.780335
1112.859	70.793527
1113.029	70.832158
1113.200	71.436468
1113.371	71.753236
1113.541	71.472946
1113.712	71.467205
1113.882	71.231732
1114.053	70.827255
1114.223	70.662078
1114.394	70.297178
1114.564	70.539957
1114.735	70.759777
1114.905	70.905203
1115.076	70.394425
1115.246	70.513713
1115.416	70.674503
1115.587	70.357629
1115.757	70.147412
1115.927	70.309169
1116.098	69.548580
1116.268	69.028140
1116.438	68.895414
1116.609	68.362512
1116.779	67.712837
1116.949	67.679628
1117.119	67.533850
1117.289	67.583941
1117.459	67.675084
1117.630	68.132080
1117.800	68.670365
1117.970	69.873594
1118.140	70.204579
1118.310	69.821514
1118.480	69.377658
1118.650	68.830292
1118.820	68.710857
1118.990	68.223413
1119.160	67.661540
1119.330	67.784122
1119.500	67.384019
1119.670	66.939810
1119.840	66.206639
1120.010	66.048775
1120.179	66.279462
1120.349	66.536605
1120.519	67.035731
1120.689	66.778308
1120.859	66.491553
1121.028	66.367484
1121.198	65.712464
1121.368	65.654957
1121.538	65.499300
1121.707	65.102151
1121.877	65.492965
1122.047	65.727381
1122.216	65.694948
1122.386	66.324562
1122.555	66.748865
1122.725	67.139152
1122.894	67.252603
1123.064	67.719863
1123.233	67.984182
1123.403	67.122873
1123.573	66.680692
1123.742	65.916317
1123.911	64.922108
1124.081	64.580472
1124.250	63.635315
1124.419	62.777523
1124.589	61.997382
1124.758	61.239412
1124.927	60.821240
1125.097	60.155090
1125.266	60.183458
1125.435	60.397619
1125.605	60.756540
1125.774	61.439620
1125.943	61.910870
1126.112	62.328786
1126.281	62.984646
1126.450	63.442482
1126.620	63.799558
1126.789	63.745228
1126.958	63.612311
1127.127	63.913299
1127.296	64.405197
1127.465	64.836293
1127.634	64.466078
1127.803	64.149768
1127.972	64.126436
1128.141	64.277513
1128.310	64.864431
1128.479	64.942583
1128.648	64.792300
1128.817	64.191543
1128.985	64.063381
1129.154	63.701445
1129.323	62.944675
1129.492	62.594314
1129.661	62.448319
1129.829	61.759902
1129.998	61.201596
1130.167	60.930484
1130.336	60.923397
1130.504	60.962861
1130.673	61.390596
1130.842	61.287222
1131.010	61.170926
1131.179	61.172633
1131.347	61.179431
1131.516	60.758483
1131.685	61.043815
1131.853	61.136849
1132.022	60.884679
1132.190	60.990073
1132.359	61.168693
1132.527	61.242311
1132.696	61.274077
1132.864	60.960326
1133.032	60.914989
1133.201	61.283451
1133.369	61.620699
1133.537	61.646482
1133.706	61.568088
1133.874	61.055885
1134.042	60.455791
1134.211	59.923406
1134.379	59.543380
1134.547	59.328577
1134.715	59.449128
1134.884	59.369668
1135.052	59.035151
1135.220	58.843488
1135.388	58.628432
1135.556	58.628782
1135.724	58.392780
1135.892	58.815156
1136.060	58.793357
1136.228	58.721482
1136.396	58.237687
1136.564	57.935728
1136.732	57.736071
1136.900	57.881103
1137.068	57.923954
1137.236	57.958506
1137.404	57.444710
1137.572	57.460683
1137.740	56.925770
1137.908	56.914198
1138.076	57.289790
1138.243	57.878526
1138.411	58.297698
1138.579	58.363705
1138.747	58.050779
1138.914	58.128726
1139.082	58.113417
1139.250	58.186677
1139.417	58.651778
1139.585	58.571411
1139.753	58.750285
1139.920	58.756726
1140.088	58.796750
1140.256	58.803828
1140.423	58.877629
1140.591	58.894973
1140.758	58.826597
1140.926	58.886329
1141.093	59.440285
1141.261	59.108450
1141.428	59.674680
1141.596	59.578067
1141.763	59.066282
1141.930	58.735487
1142.098	58.472384
1142.265	58.470487
1142.432	58.658930
1142.600	58.704314
1142.767	58.440653
1142.934	58.473306
1143.102	58.937412
1143.269	58.756052
1143.436	58.571183
1143.603	58.862865
1143.771	58.984765
1143.938	58.873501
1144.105	58.408508
1144.272	57.714917
1144.439	57.221853
1144.606	56.910397
1144.773	56.257778
1144.940	55.736768
1145.107	55.656901
1145.274	56.060640
1145.441	56.201608
1145.608	56.235549
1145.775	56.435415
1145.942	56.459346
1146.109	56.773708
1146.276	56.897294
1146.443	57.060461
1146.610	57.411632
1146.776	58.353810
1146.943	58.165708
1147.110	57.494027
1147.277	57.396985
1147.444	57.039732
1147.610	56.909606
1147.777	56.933877
1147.944	57.235739
1148.110	57.497843
1148.277	57.683277
1148.444	56.847258
1148.610	55.496411
1148.777	55.849257
1148.944	56.328712
1149.110	56.260762
1149.277	56.615904
1149.443	55.998252
1149.610	55.819234
1149.776	55.047498
1149.943	54.815354
1150.109	54.748962
1150.276	55.570199
1150.442	55.919599
1150.608	55.971045
1150.775	56.411064
1150.941	56.391256
1151.107	56.011339
1151.274	56.622628
1151.440	57.038865
1151.606	57.534595
1151.773	57.503043
1151.939	57.473156
1152.105	57.117848
1152.271	57.018501
1152.438	56.485705
1152.604	55.641224
1152.770	55.518108
1152.936	55.521407
1153.102	55.198756
1153.268	54.624998
1153.434	54.542130
1153.600	54.240294
1153.766	53.685101
1153.932	53.477694
1154.098	53.779107
1154.264	53.759578
1154.430	53.814799
1154.596	53.890527
1154.762	54.048396
1154.928	54.144153
1155.094	54.167044
1155.260	54.037328
1155.426	54.007543
1155.591	54.064501
1155.757	53.806645
1155.923	53.037704
1156.089	53.005855
1156.255	52.755712
1156.420	52.575105
1156.586	52.646775
1156.752	52.754054
1156.917	52.752280
1157.083	52.318474
1157.249	52.332361
1157.414	52.111638
1157.580	52.201398
1157.745	52.760190
1157.911	52.378754
1158.076	52.191841
1158.242	51.974415
1158.407	51.352912
1158.573	51.140974
1158.738	51.277117
1158.904	51.904351
1159.069	51.987986
1159.235	52.433095
1159.400	52.718448
1159.565	52.506462
1159.731	52.915194
1159.896	53.278609
1160.061	53.272105
1160.227	53.603630
1160.392	53.664959
1160.557	54.133276
1160.722	53.763735
1160.888	53.382517
1161.053	53.437328
1161.218	53.207291
1161.383	53.152793
1161.548	53.568606
1161.713	53.793418
1161.878	53.757166
1162.043	53.987098
1162.208	54.240005
1162.374	53.375129
1162.539	52.979069
1162.704	53.684813
1162.869	53.695246
1163.033	53.870806
1163.198	54.404502
1163.363	53.837326
1163.528	53.180092
1163.693	53.665961
1163.858	53.396550
1164.023	52.771124
1164.188	53.202889
1164.353	53.515129
1164.517	52.662081
1164.682	52.276668
1164.847	51.547261
1165.011	50.619968
1165.176	50.863265
1165.341	51.268325
1165.506	51.214858
1165.670	51.604715
1165.835	51.960552
1166.000	51.827976
1166.164	51.636062
1166.329	52.122340
1166.493	52.451534
1166.658	53.109750
1166.822	53.571404
1166.987	53.150209
1167.151	53.003324
1167.316	52.559803
1167.480	51.925575
1167.645	51.895236
1167.809	51.481148
1167.973	51.522178
1168.138	52.172634
1168.302	52.536609
1168.466	52.250995
1168.631	52.009505
1168.795	52.123326
1168.959	51.938095
1169.124	51.993759
1169.288	52.278141
1169.452	52.300846
1169.616	52.376034
1169.780	52.340444
1169.944	51.537321
1170.109	51.001115
1170.273	50.951404
1170.437	51.063019
1170.601	50.764371
1170.765	50.410017
1170.929	50.119706
1171.093	49.724098
1171.257	49.228679
1171.421	49.266311
1171.585	49.777762
1171.749	50.242578
1171.913	50.485272
1172.077	51.145940
1172.240	51.649987
1172.404	52.238925
1172.568	53.055282
1172.732	53.865978
1172.896	54.372069
1173.060	55.183038
1173.223	56.019761
1173.387	55.682130
1173.551	55.580353
1173.715	55.671875
1173.878	55.165948
1174.042	55.106247
1174.206	55.018777
1174.369	55.212489
1174.533	54.445387
1174.696	54.009244
1174.860	53.406458
1175.023	53.141576
1175.187	53.647303
1175.351	53.713523
1175.514	53.468725
1175.677	53.631104
1175.841	53.583430
1176.004	53.499121
1176.168	53.226024
1176.331	53.753282
1176.495	54.030521
1176.658	54.474130
1176.821	54.164461
1176.985	53.807643
1177.148	53.850209
1177.311	54.174391
1177.474	54.067444
1177.638	53.894305
1177.801	54.312602
1177.964	54.225353
1178.127	54.198031
1178.291	54.463207
1178.454	54.333198
1178.617	54.389403
1178.780	54.673815
1178.943	54.638065
1179.106	54.152248
1179.269	54.357063
1179.432	54.515997
1179.595	54.125078
1179.758	53.850145
1179.921	53.660125
1180.084	53.760212
1180.247	53.552179
1180.410	53.460820
1180.573	53.241555
1180.736	53.157598
1180.899	53.282148
1181.061	53.134605
1181.224	52.715763
1181.387	52.667433
1181.550	52.890270
1181.713	53.160780
1181.875	52.888082
1182.038	52.898625
1182.201	52.927840
1182.363	52.439748
1182.526	52.402301
1182.689	52.682176
1182.851	52.745513
1183.014	53.138800
1183.177	53.187290
1183.339	53.329739
1183.502	53.605077
1183.664	53.527349
1183.827	53.678678
1183.989	53.738853
1184.152	54.283602
1184.314	54.066319
1184.477	53.911096
1184.639	53.828644
1184.801	53.036523
1184.964	52.526706
1185.126	52.506225
1185.288	52.344800
1185.451	52.660630
1185.613	52.371351
1185.775	51.961950
1185.938	51.885928
1186.100	52.050360
1186.262	51.810902
1186.424	51.955327
1186.586	52.499091
1186.749	52.308067
1186.911	51.814337
1187.073	51.447858
1187.235	51.038280
1187.397	51.257161
1187.559	51.797831
1187.721	52.196160
1187.883	52.300702
1188.045	52.455383
1188.207	52.435893
1188.369	52.518450
1188.531	53.492533
1188.693	54.061742
1188.855	53.814548
1189.017	53.702230
1189.179	53.911334
1189.341	53.639722
1189.502	53.285025
1189.664	52.656759
1189.826	52.805649
1189.988	53.261510
1190.150	53.468351
1190.311	53.112440
1190.473	53.031633
1190.635	53.340095
1190.796	53.625795
1190.958	53.786624
1191.120	54.037409
1191.281	54.128982
1191.443	54.698978
1191.604	55.096197
1191.766	55.005252
1191.928	55.316496
1192.089	55.697966
1192.251	55.484421
1192.412	55.781154
1192.574	56.267393
1192.735	56.190654
1192.896	56.096137
1193.058	55.983817
1193.219	55.862936
1193.381	55.519181
1193.542	55.733851
1193.703	55.945218
1193.865	56.450549
1194.026	57.103654
1194.187	57.061542
1194.349	57.041918
1194.510	57.323153
1194.671	57.910438
1194.832	58.316277
1194.993	58.672460
1195.155	58.775214
1195.316	58.445598
1195.477	58.107391
1195.638	57.830960
1195.799	57.848862
1195.960	57.804242
1196.121	57.385179
1196.282	57.572560
1196.443	57.673657
1196.604	57.731691
1196.765	57.703517
1196.926	58.069580
1197.087	58.273760
1197.248	58.504497
1197.409	58.548703
1197.570	58.312436
1197.730	58.563160
1197.891	58.648421
1198.052	58.134674
1198.213	58.299670
1198.374	58.785949
1198.534	59.036834
1198.695	58.903885
1198.856	59.055615
1199.016	58.720949
1199.177	58.705707
1199.338	58.941485
1199.498	59.156346
1199.659	59.120740
1199.820	59.312713
1199.980	58.810835
1200.141	58.814894
1200.301	59.216762
1200.462	58.764405
1200.622	58.437544
1200.783	58.346068
1200.943	57.914363
1201.104	57.846984
1201.264	57.628824
1201.424	57.852223
1201.585	58.353510
1201.745	58.773318
1201.906	58.159638
1202.066	57.859438
1202.226	58.363278
1202.386	58.705828
1202.547	59.577693
1202.707	60.192737
1202.867	60.173250
1203.027	59.842984
1203.188	59.688816
1203.348	59.293975
1203.508	59.102638
1203.668	59.266761
1203.828	59.188489
1203.988	59.391082
1204.148	59.532134
1204.308	58.878388
1204.468	58.564772
1204.628	58.629493
1204.788	58.785768
1204.948	59.553814
1205.108	60.099794
1205.268	60.157054
1205.428	60.181738
1205.588	60.564739
1205.748	60.811488
1205.908	61.003200
1206.068	61.647021
1206.228	62.317905
1206.387	62.865612
1206.547	63.329327
1206.707	63.031696
1206.867	62.602916
1207.026	62.541622
1207.186	62.427648
1207.346	62.236656
1207.505	61.855699
1207.665	61.325497
1207.825	61.070101
1207.984	60.659365
1208.144	60.185695
1208.303	59.951980
1208.463	59.937390
1208.622	60.429867
1208.782	60.290212
1208.941	60.765825
1209.101	60.694983
1209.260	60.943013
1209.420	61.275244
1209.579	61.119672
1209.739	61.514928
1209.898	61.836755
1210.057	61.705365
1210.217	61.710826
1210.376	61.584427
1210.535	62.231253
1210.694	62.026216
1210.854	61.847661
1211.013	61.937660
1211.172	61.818587
1211.331	62.144082
1211.490	61.709580
1211.650	61.576890
1211.809	61.956913
1211.968	62.319617
1212.127	62.601605
1212.286	62.422625
1212.445	62.966566
1212.604	63.718144
1212.763	63.312512
1212.922	63.686111
1213.081	63.763407
1213.240	64.023222
1213.399	64.535517
1213.558	64.764005
1213.717	65.068712
1213.876	65.021650
1214.035	65.443870
1214.194	65.511957
1214.352	65.114665
1214.511	65.640187
1214.670	65.555355
1214.829	65.530622
1214.988	66.242934
1215.146	65.986782
1215.305	66.191600
1215.464	65.923828
1215.622	65.949282
1215.781	66.030078
1215.940	65.681588
1216.098	65.277283
1216.257	64.683493
1216.415	64.482754
1216.574	64.561869
1216.732	64.097725
1216.891	64.176381
1217.049	63.960758
1217.208	63.882507
1217.366	63.665450
1217.525	63.049258
1217.683	62.748202
1217.842	62.996054
1218.000	63.329895
1218.158	63.483774
1218.317	63.465366
1218.475	63.454628
1218.633	63.512151
1218.792	63.648551
1218.950	64.053579
1219.108	64.692130
1219.266	65.205733
1219.425	65.946645
1219.583	66.863910
1219.741	66.822196
1219.899	67.340328
1220.057	68.088947
1220.215	67.787053
1220.373	66.985090
1220.531	66.739908
1220.689	66.314200
1220.847	65.343887
1221.005	64.544631
1221.163	64.108469
1221.322	63.284548
1221.479	63.608257
1221.637	62.668757
1221.795	61.409504
1221.953	61.541455
1222.111	61.597567
1222.269	61.578979
1222.427	61.865479
1222.584	61.978271
1222.742	62.483775
1222.900	62.687467
1223.058	62.870970
1223.216	62.576466
1223.373	62.965968
1223.531	63.233505
1223.689	63.173604
1223.846	63.624669
1224.004	63.853279
1224.162	64.053213
1224.319	64.594506
1224.477	64.850727
1224.634	64.887053
1224.792	64.792198
1224.949	64.852990
1225.107	65.515841
1225.264	65.937976
1225.422	66.341858
1225.579	66.673080
1225.737	66.484798
1225.894	66.261510
1226.052	66.236033
1226.209	66.125752
1226.366	66.421228
1226.523	67.612650
1226.681	68.442069
1226.838	68.342773
1226.995	68.560910
1227.153	68.975189
1227.310	69.640937
1227.467	69.990350
1227.624	69.467042
1227.781	69.231142
1227.938	69.974726
1228.096	69.828551
1228.253	68.864347
1228.410	67.931462
1228.567	67.698683
1228.724	67.653703
1228.881	66.965813
1229.038	66.200244
1229.195	66.183362
1229.352	66.479372
1229.509	66.893279
1229.666	66.829275
1229.823	66.743969
1229.980	66.988990
1230.136	67.330721
1230.293	67.411742
1230.450	67.224930
1230.607	67.301818
1230.764	67.745168
1230.921	68.138002
1231.077	68.296493
1231.234	67.855363
1231.391	66.866985
1231.547	66.855257
1231.704	66.610217
1231.861	66.953930
1232.018	67.126123
1232.174	66.951390
1232.331	66.844716
1232.487	66.562599
1232.644	66.221532
1232.800	66.384979
1232.957	66.749992
1233.113	66.854928
1233.270	66.243316
1233.426	66.175433
1233.583	66.019995
1233.739	65.817687
1233.896	66.454479
1234.052	67.209176
1234.208	67.437359
1234.365	67.473919
1234.521	67.903121
1234.677	67.875490
1234.834	68.289238
1234.990	69.217821
1235.146	70.074072
1235.302	69.524751
1235.459	69.254397
1235.615	68.585101
1235.771	68.524120
1235.927	68.771530
1236.083	68.409717
1236.239	68.243853
1236.396	68.484795
1236.552	68.742814
1236.708	68.512930
1236.864	68.390712
1237.020	69.349861
1237.176	69.865264
1237.332	70.243277
1237.488	70.039031
1237.644	69.604575
1237.799	70.216614
1237.955	70.003820
1238.111	69.793517
1238.267	69.418513
1238.423	69.558319
1238.579	69.004913
1238.734	68.115277
1238.890	68.145328
1239.046	68.303862
1239.202	68.427890
1239.357	69.107561
1239.513	69.222795
1239.669	69.722162
1239.824	69.989417
1239.980	70.523788
1240.136	70.835266
1240.291	71.426441
1240.447	72.544770
1240.603	72.363370
1240.758	72.378087
1240.914	72.367936
1241.069	71.416895
1241.225	70.808973
1241.380	70.540354
1241.535	70.391534
1241.691	70.264396
1241.846	70.023543
1242.002	69.643909
1242.157	68.338150
1242.313	67.845473
1242.468	67.469328
1242.623	67.453448
1242.778	68.186177
1242.934	68.548815
1243.089	67.998579
1243.244	67.470707
1243.399	67.450303
1243.554	67.524358
1243.710	68.089566
1243.865	69.193733
1244.020	69.684975
1244.175	70.083163
1244.330	70.093262
1244.485	69.278145
1244.640	68.708727
1244.795	69.254032
1244.950	70.405187
1245.105	70.673610
1245.260	70.296192
1245.415	69.644528
1245.570	69.188991
1245.725	68.792702
1245.880	68.383284
1246.035	68.848202
1246.190	69.954593
1246.345	71.033133
1246.499	71.056457
1246.654	70.511753
1246.809	70.460250
1246.964	70.758446
1247.118	70.837944
1247.273	71.474141
1247.428	72.421733
1247.583	73.549495
1247.737	73.336944
1247.892	73.043318
1248.047	72.938313
1248.201	72.470591
1248.356	72.993736
1248.510	73.277251
1248.665	73.181507
1248.819	73.277338
1248.974	73.606067
1249.128	73.475863
1249.283	72.937751
1249.437	73.085859
1249.592	73.548460
1249.746	72.884918
1249.900	73.069899
1250.055	72.629854
1250.209	72.506390
1250.363	72.667446
1250.518	73.231831
1250.672	72.682021
1250.826	72.614125
1250.981	72.612691
1251.135	72.800937
1251.289	72.395587
1251.443	73.989041
1251.597	74.708674
1251.751	74.477954
1251.906	74.502517
1252.060	75.078166
1252.214	75.022900
1252.368	75.572166
1252.522	75.297721
1252.676	74.888321
1252.830	74.388774
1252.984	74.348036
1253.138	73.457001
1253.292	72.541809
1253.446	73.065298
1253.600	73.469103
1253.754	73.394144
1253.907	73.392330
1254.061	72.947024
1254.215	73.275255
1254.369	74.269562
1254.523	75.403252
1254.677	76.091007
1254.830	75.966722
1254.984	76.467277
1255.138	76.048484
1255.292	75.721296
1255.445	75.222409
1255.599	75.170981
1255.752	75.547248
1255.906	75.714153
1256.060	75.939581
1256.213	75.411749
1256.367	75.705249
1256.520	76.790413
1256.674	77.246709
1256.827	77.979147
1256.981	77.332260
1257.134	77.237113
1257.288	77.324513
1257.441	76.801036
1257.594	76.009436
1257.748	75.071190
1257.901	74.627129
1258.055	73.834117
1258.208	72.936652
1258.361	72.983374
1258.515	72.881439
1258.668	73.806200
1258.821	74.261134
1258.974	73.247157
1259.127	72.897150
1259.281	73.157315
1259.434	73.541761
1259.587	73.148808
1259.740	73.037011
1259.893	73.793157
1260.046	72.982061
1260.199	71.925096
1260.352	70.965446
1260.505	70.655302
1260.658	71.375817
1260.811	71.945652
1260.964	72.487740
1261.117	72.266620
1261.270	72.338110
1261.423	71.813289
1261.576	70.239272
1261.729	70.974229
1261.882	72.169726
1262.035	73.183168
1262.188	74.081516
1262.340	74.462394
1262.493	75.081463
1262.646	75.857814
1262.798	76.796119
1262.951	77.533561
1263.104	78.924892
1263.257	80.023557
1263.409	79.619662
1263.562	78.435066
1263.714	78.173628
1263.867	78.139197
1264.020	79.019090
1264.172	79.397618
1264.325	79.586938
1264.477	78.671672
1264.630	79.217876
1264.782	79.620194
1264.935	79.588732
1265.087	80.675872
1265.240	80.817603
1265.392	80.581515
1265.544	80.194244
1265.697	79.408680
1265.849	78.525096
1266.001	77.750427
1266.154	77.578384
1266.306	77.919571
1266.458	77.429410
1266.610	78.044245
1266.762	77.219954
1266.915	78.178378
1267.067	77.764465
1267.219	76.976950
1267.371	76.745112
1267.523	77.641582
1267.675	77.919051
1267.828	78.620578
1267.979	77.444328
1268.132	77.085309
1268.284	76.261105
1268.436	76.501724
1268.588	76.534799
1268.740	77.831504
1268.891	79.349012
1269.043	79.279769
1269.195	77.532348
1269.347	76.833073
1269.499	76.366266
1269.651	76.203281
1269.803	77.168686
1269.955	77.580266
1270.106	77.222803
1270.258	77.299661
1270.410	77.349643
1270.562	77.002308
1270.713	77.673358
1270.865	79.326145
1271.017	80.308788
1271.168	80.807180
1271.320	80.854454
1271.471	78.859605
1271.623	78.685814
1271.775	79.757576
1271.926	79.838189
1272.078	78.432928
1272.229	78.425139
1272.381	78.454737
1272.532	77.959758
1272.684	76.833457
1272.835	76.489811
1272.986	76.887743
1273.138	77.596581
1273.289	78.186905
1273.440	78.203060
1273.592	78.470494
1273.743	80.414367
1273.894	81.972239
1274.046	83.066879
1274.197	83.277941
1274.348	84.580850
1274.500	85.684899
1274.651	86.896128
1274.802	89.231938
>>>>>>>>>> END of Data <<<<<<<<<<
