Date	2025年07月03日木曜日 09時50分57秒
Spectrometers	SR401765
ダーク	使用
リファレンス	使用
積分時間[msec]	300
平均回数	1
ｽﾑｰｼﾞﾝｸﾞ	5
Electrical Dark	USE
ピクセル数	3648
計測モード	反射率
保存開始波長[nm]	598.495
保存終了波長[nm]	1274.802
保存ﾋﾟｯﾁ波長[nm]	全波長

>>>>>>>>>> Data Start <<<<<<<<<<<<
598.495	-9.086262
598.713	-9.086262
598.931	-9.086262
599.148	-9.086262
599.366	0.000000
599.584	0.000000
599.802	0.000000
600.020	0.000000
600.238	0.000000
600.455	-6.471872
600.673	-317.437300
600.891	44.428467
601.109	52.487258
601.326	53.171757
601.544	53.132775
601.762	53.279473
601.979	53.349588
602.197	53.196753
602.415	53.022229
602.632	52.955876
602.850	52.800129
603.067	52.667226
603.285	52.754734
603.502	52.765167
603.720	52.867399
603.938	53.141416
604.155	53.388385
604.372	53.518145
604.590	53.663872
604.807	53.893133
605.025	54.220750
605.242	54.618444
605.460	55.020229
605.677	55.165776
605.894	55.220696
606.112	55.245202
606.329	55.410216
606.546	55.644789
606.764	55.894532
606.981	56.216890
607.198	56.431946
607.415	56.304108
607.633	56.249427
607.850	56.309541
608.067	56.460806
608.284	56.559337
608.501	56.800653
608.718	56.821102
608.935	56.728839
609.153	56.731170
609.370	56.715081
609.587	56.625206
609.804	56.706684
610.021	56.759785
610.238	56.688733
610.455	56.802983
610.672	57.049129
610.889	57.316295
611.106	57.527625
611.323	57.825647
611.540	57.984060
611.756	58.093947
611.973	58.437985
612.190	58.989690
612.407	59.675492
612.624	60.219854
612.841	60.510489
613.057	60.588646
613.274	60.605998
613.491	60.751984
613.708	60.754000
613.925	60.896060
614.141	60.938432
614.358	60.887217
614.575	60.773413
614.791	60.418971
615.008	60.273833
615.225	60.393338
615.441	60.673088
615.658	60.769779
615.874	60.842086
616.091	61.073038
616.307	61.341460
616.524	61.893866
616.740	62.479252
616.957	62.651714
617.173	62.793020
617.390	63.024058
617.606	63.130809
617.823	63.065340
618.039	63.005592
618.256	63.171000
618.472	63.291907
618.688	63.342428
618.905	63.386439
619.121	63.303627
619.337	63.522501
619.554	63.861917
619.770	64.074296
619.986	64.245223
620.202	64.385359
620.419	64.507670
620.635	64.289897
620.851	64.327599
621.067	64.513003
621.283	64.479273
621.499	64.337017
621.716	64.308838
621.932	64.294622
622.148	64.509127
622.364	64.738818
622.580	65.152120
622.796	65.523165
623.012	65.988915
623.228	66.317264
623.444	66.723536
623.660	67.076119
623.876	67.300488
624.092	67.443606
624.308	67.648418
624.524	67.767616
624.740	67.696507
624.955	67.549038
625.171	67.673321
625.387	67.824602
625.603	67.656449
625.819	67.247976
626.034	67.155422
626.250	67.285070
626.466	67.517904
626.682	67.876017
626.897	68.096580
627.113	68.177211
627.329	67.993852
627.544	67.883406
627.760	68.053309
627.976	68.513042
628.191	69.085508
628.407	69.277328
628.623	69.497872
628.838	69.592867
629.054	69.542276
629.269	69.405834
629.485	69.456318
629.700	69.742735
629.916	69.885464
630.131	69.842953
630.347	69.722228
630.562	69.645055
630.777	69.803082
630.993	70.054620
631.208	70.406408
631.424	70.683207
631.639	71.062018
631.854	71.687485
632.070	72.271077
632.285	72.606020
632.500	72.794332
632.715	72.932962
632.931	72.940803
633.146	73.027854
633.361	73.219582
633.576	73.252333
633.791	73.127895
634.007	73.012907
634.222	72.706342
634.437	72.459633
634.652	72.385918
634.867	72.429228
635.082	72.516193
635.297	72.908438
635.512	73.252622
635.727	73.251643
635.942	73.125807
636.157	73.150540
636.372	73.383807
636.587	73.794868
636.802	74.190638
637.017	74.620378
637.232	75.050561
637.447	75.470906
637.662	75.412209
637.876	75.346488
638.091	75.192848
638.306	75.005322
638.521	75.050769
638.736	74.992116
638.951	74.711048
639.165	74.424945
639.380	74.058346
639.595	73.521380
639.809	73.070018
640.024	72.844801
640.239	72.540781
640.453	72.723184
640.668	73.217860
640.883	73.404619
641.097	73.531519
641.312	73.794270
641.526	74.020415
641.741	74.346682
641.955	74.919309
642.170	75.517902
642.384	75.956889
642.599	76.271106
642.813	76.347963
643.028	76.250263
643.242	76.273924
643.457	76.401576
643.671	76.742966
643.885	77.109168
644.100	77.173466
644.314	76.974019
644.528	76.696138
644.743	76.619224
644.957	76.667826
645.171	76.792335
645.386	76.952883
645.600	77.334879
645.814	77.565216
646.028	77.527051
646.242	77.419852
646.457	77.314843
646.671	77.163468
646.885	77.116651
647.099	77.201770
647.313	77.495088
647.527	77.850711
647.741	78.173795
647.955	78.361951
648.169	78.461935
648.383	78.334357
648.597	78.180561
648.811	78.352339
649.025	78.786378
649.239	78.912841
649.453	78.754079
649.667	78.543785
649.881	78.253486
650.095	78.103694
650.309	77.871652
650.523	77.553866
650.737	77.290458
650.950	77.180626
651.164	77.111789
651.378	77.001245
651.592	76.996344
651.805	76.945788
652.019	76.645470
652.233	76.405348
652.447	76.160040
652.660	75.908000
652.874	75.921327
653.088	76.211191
653.301	76.392922
653.515	76.517186
653.728	76.504018
653.942	76.475557
654.156	76.662474
654.369	77.035018
654.583	77.249793
654.796	77.261310
655.010	77.200019
655.223	77.103869
655.437	77.026200
655.650	77.153437
655.863	77.124418
656.077	77.052508
656.290	77.028783
656.504	76.921005
656.717	76.983381
656.930	77.220991
657.144	77.536622
657.357	77.849301
657.570	77.982908
657.783	78.059612
657.997	78.155108
658.210	78.453858
658.423	78.925386
658.636	79.496827
658.849	79.870514
659.063	79.944416
659.276	80.011183
659.489	80.073066
659.702	80.067453
659.915	80.163670
660.128	80.306919
660.341	80.362494
660.554	80.396270
660.767	80.202596
660.980	79.762316
661.193	79.523608
661.406	79.426865
661.619	79.252210
661.832	79.319168
662.045	79.494937
662.258	79.451275
662.471	79.234059
662.684	78.950654
662.897	78.607117
663.110	78.387693
663.322	78.611988
663.535	79.022241
663.748	79.356872
663.961	79.574239
664.174	79.561106
664.386	79.652756
664.599	80.036809
664.812	80.497228
665.024	81.051205
665.237	81.277591
665.450	81.417811
665.662	81.525626
665.875	81.407595
666.088	81.215989
666.300	81.128997
666.513	81.073230
666.725	80.896009
666.938	80.965588
667.150	80.880144
667.363	80.494863
667.575	80.478347
667.788	80.719943
668.000	80.915468
668.213	81.059833
668.425	81.080369
668.638	81.067264
668.850	81.125468
669.062	81.319192
669.275	81.390987
669.487	81.539951
669.699	81.831414
669.912	82.247102
670.124	82.554824
670.336	82.641593
670.548	82.908485
670.761	83.378278
670.973	83.711563
671.185	83.658176
671.397	83.247649
671.609	82.729943
671.822	82.486854
672.034	82.410883
672.246	82.080298
672.458	81.614555
672.670	81.186333
672.882	80.709707
673.094	80.280163
673.306	79.933936
673.518	79.858237
673.730	80.072425
673.942	80.184866
674.154	80.169069
674.366	80.055238
674.578	80.043452
674.790	80.249104
675.002	80.300281
675.214	80.102729
675.425	80.005176
675.637	80.039527
675.849	80.263234
676.061	80.394213
676.273	80.382986
676.484	80.595310
676.696	81.250081
676.908	82.019131
677.120	82.297499
677.331	82.602460
677.543	83.088276
677.755	83.286712
677.966	83.480832
678.178	83.694306
678.389	83.778619
678.601	83.921621
678.813	83.841998
679.024	83.252590
679.236	82.562097
679.447	82.252292
679.659	81.945466
679.870	81.461781
680.082	81.077670
680.293	80.538691
680.505	79.843361
680.716	79.652213
680.927	79.804868
681.139	79.978562
681.350	80.292275
681.562	80.424176
681.773	80.470264
681.984	80.624064
682.196	80.955380
682.407	81.334436
682.618	81.739226
682.829	82.064775
683.041	82.252983
683.252	82.468928
683.463	82.553211
683.674	82.357310
683.885	82.101822
684.097	81.894381
684.308	81.809085
684.519	81.690474
684.730	81.610847
684.941	81.865811
685.152	82.468043
685.363	82.946428
685.574	82.774211
685.785	82.297831
685.996	82.133377
686.207	82.377606
686.418	82.843689
686.629	83.200000
686.840	83.509588
687.051	83.670427
687.262	83.590661
687.473	83.433804
687.684	83.173704
687.894	83.114401
688.105	83.410248
688.316	83.685838
688.527	83.551860
688.738	83.078022
688.948	82.672452
689.159	82.497164
689.370	82.363994
689.580	82.382855
689.791	82.419820
690.002	82.428266
690.212	82.610283
690.423	82.664003
690.634	82.433919
690.844	82.446339
691.055	82.897990
691.266	83.170355
691.476	83.060030
691.687	82.906294
691.897	82.587724
692.108	82.092542
692.318	81.744687
692.529	81.305243
692.739	80.775222
692.949	80.458467
693.160	80.127448
693.370	79.736841
693.581	79.615095
693.791	79.667007
694.001	79.734527
694.212	79.913038
694.422	80.340159
694.632	80.730856
694.843	81.093590
695.053	81.610598
695.263	82.171611
695.473	82.846241
695.683	83.361758
695.894	83.463690
696.104	83.471989
696.314	83.615411
696.524	83.896177
696.734	84.175368
696.944	84.354226
697.154	84.249598
697.365	83.803071
697.575	83.462674
697.785	83.058455
697.995	82.513141
698.205	82.622936
698.415	83.373752
698.625	84.003379
698.834	83.981072
699.044	83.428368
699.254	82.978765
699.464	82.831954
699.674	82.852646
699.884	82.842009
700.094	82.960221
700.304	83.272988
700.513	83.045749
700.723	82.121219
700.933	81.434840
701.143	81.269611
701.353	81.299564
701.562	81.461772
701.772	81.712700
701.982	81.663184
702.191	81.310067
702.401	81.028929
702.611	80.776761
702.820	80.835447
703.030	81.107311
703.239	81.149182
703.449	81.014387
703.659	80.920675
703.868	80.599283
704.078	80.560670
704.287	81.170736
704.497	81.959549
704.706	82.279900
704.916	82.349216
705.125	82.291219
705.334	82.274034
705.544	82.081369
705.753	81.788661
705.962	81.692831
706.172	81.647725
706.381	81.180931
706.590	80.440587
706.800	79.768755
707.009	79.457357
707.218	79.326580
707.428	79.198816
707.637	79.122474
707.846	79.244753
708.055	79.400882
708.264	79.409091
708.474	79.415141
708.683	79.382712
708.892	79.385908
709.101	79.398532
709.310	79.287288
709.519	79.236675
709.728	79.305937
709.937	79.324684
710.146	79.359979
710.355	79.277629
710.564	79.119099
710.773	79.222117
710.982	79.881227
711.191	80.872322
711.400	81.729280
711.609	82.163158
711.818	82.372650
712.027	82.339806
712.235	82.263366
712.444	82.100596
712.653	81.873040
712.862	81.864903
713.071	81.700842
713.279	81.202449
713.488	80.608170
713.697	80.037829
713.906	79.721017
714.114	79.493750
714.323	79.176733
714.532	78.854859
714.740	78.720977
714.949	78.756473
715.157	78.484592
715.366	78.229947
715.575	78.127650
715.783	77.984789
715.992	78.010396
716.200	78.146916
716.409	78.199764
716.617	78.617055
716.826	79.089065
717.034	79.197392
717.242	79.327318
717.451	79.787486
717.659	80.255535
717.868	80.405240
718.076	80.362226
718.284	80.064095
718.493	79.582734
718.701	79.166438
718.909	78.865229
719.118	78.580190
719.326	78.378344
719.534	78.177782
719.742	77.708133
719.951	76.998634
720.159	76.721543
720.367	76.692613
720.575	76.647162
720.783	76.850168
720.991	77.181611
721.199	77.144944
721.408	76.855494
721.616	76.659461
721.824	76.778762
722.032	77.212106
722.240	77.690491
722.448	77.938531
722.656	78.099577
722.864	78.364131
723.072	78.460429
723.280	78.312271
723.487	78.105376
723.695	77.989955
723.903	77.921453
724.111	77.626516
724.319	77.202869
724.527	76.973470
724.735	76.804067
724.942	76.541142
725.150	76.190128
725.358	76.023910
725.566	76.122100
725.773	76.443365
725.981	76.745782
726.189	76.949352
726.396	77.136508
726.604	77.297084
726.812	77.336203
727.019	77.278528
727.227	77.280388
727.435	77.490120
727.642	77.525451
727.850	77.280129
728.057	76.776525
728.265	76.331196
728.472	76.151341
728.680	76.160810
728.887	76.064012
729.095	75.830207
729.302	75.625848
729.509	75.433224
729.717	75.216304
729.924	75.244210
730.132	75.465660
730.339	75.591619
730.546	75.659424
730.753	75.722122
730.961	75.678685
731.168	75.589017
731.375	75.785510
731.583	75.851683
731.790	75.788292
731.997	75.792371
732.204	75.648455
732.411	75.378115
732.618	75.317139
732.826	75.457156
733.033	75.435975
733.240	75.295061
733.447	75.153105
733.654	74.768320
733.861	74.442150
734.068	74.029140
734.275	73.620609
734.482	73.299053
734.689	73.100427
734.896	73.162221
735.103	73.372746
735.310	73.635802
735.517	73.841483
735.724	74.124837
735.931	74.465266
736.137	74.788134
736.344	75.318745
736.551	75.758889
736.758	75.813211
736.965	75.645264
737.171	75.023993
737.378	74.049128
737.585	73.124308
737.792	72.495195
737.998	72.112465
738.205	71.951386
738.412	71.706277
738.618	71.191069
738.825	70.343726
739.032	69.673839
739.238	69.215853
739.445	68.981533
739.651	68.896092
739.858	68.950454
740.064	68.986849
740.271	68.651523
740.477	68.008345
740.684	67.397506
740.890	66.806668
741.097	66.519782
741.303	66.534390
741.510	66.577538
741.716	66.647823
741.922	66.880995
742.129	67.028445
742.335	67.000982
742.541	66.908972
742.748	66.792145
742.954	67.018081
743.160	67.543481
743.366	67.931279
743.573	68.068568
743.779	67.956599
743.985	67.740783
744.191	67.440084
744.397	67.368789
744.604	67.565599
744.810	67.880164
745.016	68.049627
745.222	67.903622
745.428	67.651540
745.634	67.480970
745.840	67.115473
746.046	66.607961
746.252	66.071857
746.458	65.442288
746.664	64.627750
746.870	63.724088
747.076	63.071484
747.282	62.865875
747.488	62.660712
747.694	62.476599
747.900	62.238119
748.105	62.159594
748.311	62.417136
748.517	62.692162
748.723	62.985646
748.929	63.212548
749.134	63.378303
749.340	63.430858
749.546	63.469187
749.752	63.663876
749.957	63.842900
750.163	64.019544
750.369	64.137776
750.574	64.137121
750.780	63.921327
750.985	63.763143
751.191	63.644104
751.397	63.498126
751.602	63.261417
751.808	62.806372
752.013	62.185645
752.219	61.643014
752.424	61.270185
752.630	60.940549
752.835	60.480595
753.041	60.238709
753.246	59.883530
753.451	59.377452
753.657	58.871407
753.862	58.492142
754.067	58.355933
754.273	58.353842
754.478	58.210837
754.683	57.987580
754.889	57.611659
755.094	57.339757
755.299	57.247794
755.504	57.120819
755.710	56.968233
755.915	56.966786
756.120	56.930028
756.325	56.642510
756.530	56.209554
756.735	55.764901
756.940	55.400465
757.146	55.352524
757.351	55.403637
757.556	55.216106
757.761	55.040557
757.966	54.969774
758.171	54.443520
758.376	53.807824
758.581	53.344355
758.786	53.057122
758.990	52.874640
759.195	52.676588
759.400	52.288437
759.605	51.595003
759.810	50.964057
760.015	50.511371
760.220	50.050278
760.424	49.887126
760.629	49.767633
760.834	49.687438
761.039	49.453253
761.244	49.114351
761.448	48.749836
761.653	48.523549
761.858	48.595809
762.062	48.723229
762.267	48.661021
762.472	48.447626
762.676	48.222812
762.881	48.009615
763.085	47.618288
763.290	47.250276
763.494	46.780450
763.699	46.357620
763.903	45.901325
764.108	45.343997
764.312	44.720105
764.517	44.182721
764.721	43.871619
764.926	43.573413
765.130	43.203898
765.335	42.893945
765.539	42.528317
765.743	42.146968
765.948	41.925999
766.152	41.699976
766.356	41.381300
766.560	41.169409
766.765	40.830083
766.969	40.332833
767.173	39.871226
767.377	39.434708
767.582	38.959105
767.786	38.646335
767.990	38.495577
768.194	38.107191
768.398	37.763851
768.602	37.597022
768.806	37.246563
769.010	36.925706
769.215	36.631555
769.419	36.382035
769.623	36.239969
769.827	36.052415
770.031	35.613560
770.234	35.173879
770.438	34.837480
770.642	34.458530
770.846	33.977859
771.050	33.546256
771.254	33.096780
771.458	32.844641
771.662	32.446733
771.866	32.045018
772.069	31.665091
772.273	31.313818
772.477	30.901439
772.681	30.541548
772.885	30.088004
773.088	29.559936
773.292	29.020226
773.496	28.579485
773.699	28.077664
773.903	27.629535
774.107	27.038260
774.310	26.484396
774.514	26.071943
774.717	25.700122
774.921	25.293591
775.124	24.947684
775.328	24.622011
775.531	24.398133
775.735	24.309295
775.938	24.126352
776.142	23.786662
776.345	23.608007
776.549	23.433050
776.752	23.250265
776.956	23.174222
777.159	22.916790
777.362	22.589749
777.566	22.378321
777.769	22.086968
777.972	21.707180
778.176	21.288151
778.379	20.995493
778.582	20.729196
778.785	20.567463
778.989	20.289187
779.192	19.928794
779.395	19.615068
779.598	19.262099
779.801	18.930176
780.004	18.686508
780.207	18.323646
780.411	17.943352
780.614	17.638012
780.817	17.329405
781.020	16.827392
781.223	16.540472
781.426	16.262140
781.629	15.999038
781.832	15.921985
782.035	15.767525
782.238	15.542563
782.440	15.350448
782.643	15.232569
782.846	15.082228
783.049	14.800829
783.252	14.665999
783.455	14.505658
783.658	14.273309
783.860	14.075328
784.063	13.830845
784.266	13.633626
784.469	13.559246
784.671	13.409807
784.874	13.188826
785.077	12.983911
785.279	12.747500
785.482	12.509889
785.685	12.280747
785.887	12.110868
786.090	12.000431
786.293	11.837577
786.495	11.701918
786.698	11.564823
786.900	11.553447
787.103	11.569461
787.305	11.612957
787.508	11.735550
787.710	11.817837
787.913	11.781082
788.115	11.762659
788.317	11.769082
788.520	11.819917
788.722	11.882650
788.924	11.836176
789.127	11.761722
789.329	11.744408
789.531	11.662102
789.734	11.545508
789.936	11.435370
790.138	11.345414
790.340	11.227307
790.543	11.153955
790.745	11.100177
790.947	11.084362
791.149	11.201144
791.351	11.269719
791.553	11.235738
791.756	11.231156
791.958	11.304699
792.160	11.514890
792.362	11.758491
792.564	11.916777
792.766	11.933235
792.968	12.024539
793.170	12.076789
793.372	12.026172
793.574	12.023861
793.776	12.079281
793.978	12.166922
794.180	12.249791
794.381	12.304243
794.583	12.282073
794.785	12.458541
794.987	12.723861
795.189	12.940211
795.391	13.095641
795.592	13.287723
795.794	13.499028
795.996	13.819786
796.198	14.079577
796.399	14.364216
796.601	14.584594
796.803	14.845628
797.004	14.984993
797.206	15.085867
797.407	15.179955
797.609	15.210978
797.811	15.248229
798.012	15.312486
798.214	15.241208
798.415	15.241477
798.617	15.354466
798.818	15.494015
799.020	15.762384
799.221	15.991431
799.423	16.081750
799.624	16.241923
799.826	16.518006
800.027	16.792746
800.228	17.107079
800.430	17.475592
800.631	17.742653
800.832	17.852318
801.034	18.072235
801.235	18.324843
801.436	18.654897
801.637	19.231719
801.839	19.726131
802.040	20.226504
802.241	20.721150
802.442	21.145445
802.643	21.551181
802.844	21.943702
803.046	22.354715
803.247	22.534801
803.448	22.729685
803.649	23.064581
803.850	23.307710
804.051	23.493625
804.252	23.650545
804.453	23.779620
804.654	23.925134
804.855	24.139986
805.056	24.417722
805.257	24.594121
805.458	24.877853
805.659	25.061639
805.859	25.098889
806.060	25.074814
806.261	25.156461
806.462	25.301410
806.663	25.647914
806.864	26.007984
807.064	26.423347
807.265	26.777497
807.466	27.240249
807.667	27.781772
807.867	28.305003
808.068	28.792680
808.269	29.320071
808.469	29.677734
808.670	30.042937
808.870	30.301431
809.071	30.572149
809.272	30.733243
809.472	30.950678
809.673	31.136391
809.873	31.302702
810.074	31.458138
810.274	31.689889
810.475	31.950312
810.675	32.316459
810.876	32.661111
811.076	32.999749
811.276	33.381150
811.477	33.797764
811.677	34.193319
811.878	34.646772
812.078	35.065720
812.278	35.356859
812.479	35.579302
812.679	35.921995
812.879	36.216103
813.079	36.317606
813.280	36.357700
813.480	36.332178
813.680	36.144599
813.880	36.097108
814.080	36.035173
814.280	36.134106
814.480	36.534052
814.681	36.835522
814.881	36.902851
815.081	37.170986
815.281	37.742698
815.481	38.187415
815.681	38.702432
815.881	39.459835
816.081	40.124532
816.281	40.707388
816.481	41.099808
816.681	41.304255
816.880	41.625669
817.080	41.962705
817.280	42.141467
817.480	42.212886
817.680	42.302859
817.880	42.381409
818.080	42.201700
818.279	42.165135
818.479	42.136704
818.679	42.146263
818.879	42.357069
819.078	42.598600
819.278	42.884966
819.478	43.161844
819.677	43.512188
819.877	44.020215
820.077	44.473152
820.276	45.094161
820.476	45.596999
820.675	46.095189
820.875	46.491076
821.074	46.752674
821.274	46.872179
821.473	47.149947
821.673	47.397154
821.872	47.637922
822.072	47.957356
822.271	48.398634
822.471	48.956857
822.670	49.288263
822.869	49.503079
823.069	49.779181
823.268	50.022344
823.467	50.385807
823.667	50.460984
823.866	50.599225
824.065	50.626261
824.265	50.446756
824.464	49.959696
824.663	49.356279
824.862	49.101572
825.061	49.199900
825.261	49.025718
825.460	48.840763
825.659	48.603860
825.858	48.625391
826.057	49.037396
826.256	49.589922
826.455	50.095975
826.654	50.761522
826.853	51.328382
827.052	51.723733
827.251	51.939811
827.450	52.134595
827.649	52.184904
827.848	52.651335
828.047	53.173423
828.246	53.249818
828.445	53.034504
828.644	52.840390
828.843	52.564335
829.041	52.369322
829.240	52.349826
829.439	52.460792
829.638	52.811813
829.836	53.298829
830.035	53.595667
830.234	53.784953
830.433	54.030309
830.631	54.574362
830.830	55.289630
831.029	56.012293
831.227	56.953007
831.426	57.834575
831.624	58.506229
831.823	59.063884
832.022	59.419818
832.220	59.479533
832.419	59.507292
832.617	59.562089
832.816	59.320246
833.014	59.133499
833.213	59.217209
833.411	59.156202
833.609	59.003822
833.808	59.065734
834.006	59.037649
834.205	58.886994
834.403	58.925021
834.601	58.993983
834.800	58.963874
834.998	59.175847
835.196	59.158519
835.394	58.860294
835.593	58.637240
835.791	58.315583
835.989	57.665198
836.187	57.139740
836.385	56.970397
836.584	56.801500
836.782	56.953871
836.980	57.365968
837.178	57.813979
837.376	58.320848
837.574	58.768369
837.772	59.452154
837.970	60.295657
838.168	61.088294
838.366	61.917520
838.564	62.737034
838.762	63.345962
838.960	63.322817
839.158	62.871954
839.356	62.441079
839.554	62.108231
839.752	61.952826
839.949	61.651706
840.147	61.380204
840.345	61.394046
840.543	61.330324
840.741	61.005088
840.938	60.602473
841.136	60.212727
841.334	60.092093
841.532	59.781911
841.729	59.296892
841.927	59.016728
842.125	58.730090
842.322	58.388958
842.520	58.162120
842.718	58.328101
842.915	58.777881
843.113	59.455109
843.310	60.246353
843.508	60.747899
843.705	61.482816
843.903	62.402930
844.100	62.902299
844.298	63.278638
844.495	63.509301
844.693	63.574735
844.890	63.460149
845.087	63.272136
845.285	63.112625
845.482	63.224060
845.679	63.758230
845.877	64.036528
846.074	64.347130
846.271	64.953770
846.469	65.478818
846.666	66.008695
846.863	66.764129
847.060	67.368406
847.257	67.866078
847.455	68.142252
847.652	68.334772
847.849	68.439337
848.046	68.539520
848.243	68.350902
848.440	68.167333
848.637	67.776593
848.834	67.360342
849.031	66.673672
849.228	65.820811
849.425	64.841460
849.622	64.063751
849.819	63.598602
850.016	63.497836
850.213	63.363145
850.410	63.283784
850.607	63.028279
850.804	63.025766
851.001	63.188489
851.198	63.377586
851.394	63.742598
851.591	64.538066
851.788	65.680043
851.985	66.156742
852.181	66.169476
852.378	65.984949
852.575	65.773621
852.772	65.521442
852.968	65.307291
853.165	65.238789
853.362	65.476289
853.558	65.820582
853.755	66.111443
853.951	66.304609
854.148	66.692711
854.345	66.960176
854.541	67.328887
854.738	68.052020
854.934	68.902436
855.131	69.586897
855.327	69.952315
855.523	70.094912
855.720	69.894936
855.916	69.396157
856.113	68.589621
856.309	67.968163
856.505	67.654527
856.702	67.805896
856.898	67.507103
857.094	67.229468
857.291	67.341689
857.487	67.743496
857.683	68.177675
857.879	68.849239
858.076	69.541826
858.272	70.555071
858.468	71.605066
858.664	72.546133
858.860	73.201247
859.056	73.730357
859.253	74.441515
859.449	74.951391
859.645	75.378265
859.841	75.664709
860.037	75.745501
860.233	75.834836
860.429	75.576236
860.625	75.201182
860.821	74.924984
861.017	74.546931
861.213	74.251255
861.409	73.765224
861.604	73.411795
861.800	72.986596
861.996	72.481195
862.192	72.158699
862.388	71.669116
862.584	71.297971
862.779	71.135081
862.975	70.873658
863.171	70.322857
863.367	70.339316
863.562	70.543023
863.758	70.565130
863.954	70.229826
864.149	70.105753
864.345	69.897097
864.541	69.944516
864.736	70.008205
864.932	70.021710
865.127	69.797296
865.323	69.970477
865.518	70.171710
865.714	70.421915
865.910	70.560438
866.105	70.810281
866.300	70.940217
866.496	71.314193
866.691	71.980601
866.887	72.950921
867.082	73.764847
867.277	74.501709
867.473	75.069279
867.668	75.273166
867.864	74.796204
868.059	74.446134
868.254	74.531566
868.449	74.737159
868.645	74.873347
868.840	74.836815
869.035	74.537755
869.230	74.531275
869.425	74.597966
869.621	74.556141
869.816	74.325079
870.011	74.364089
870.206	74.565008
870.401	74.877211
870.596	75.226955
870.791	75.393431
870.986	75.414736
871.181	75.216183
871.376	74.664741
871.571	74.251669
871.766	73.868659
871.961	73.879651
872.156	74.169732
872.351	74.424682
872.546	74.400386
872.741	73.916457
872.936	73.542319
873.130	73.483156
873.325	73.779190
873.520	74.343872
873.715	74.797611
873.910	75.048064
874.104	74.867383
874.299	74.573052
874.494	74.287072
874.688	74.128325
874.883	74.424417
875.078	75.010112
875.272	75.273181
875.467	74.776151
875.662	73.850717
875.856	73.114696
876.051	73.024750
876.245	73.454431
876.440	73.792644
876.634	74.135103
876.829	74.308260
877.023	74.256765
877.218	74.163369
877.412	74.004922
877.607	74.023627
877.801	73.769388
877.995	73.541601
878.190	73.444529
878.384	73.441957
878.578	73.474884
878.773	73.519738
878.967	73.598415
879.161	73.698547
879.356	73.685018
879.550	73.660198
879.744	73.760240
879.938	74.296603
880.133	74.963211
880.327	75.139152
880.521	75.234406
880.715	75.741773
880.909	75.970285
881.103	76.324135
881.297	77.201962
881.491	77.701704
881.685	78.339323
881.880	79.015282
882.073	79.551599
882.267	79.666618
882.461	80.163406
882.655	80.659508
882.849	80.821195
883.043	81.144563
883.237	81.004738
883.431	80.205906
883.625	79.615510
883.819	79.149842
884.013	78.784603
884.206	78.721694
884.400	79.041336
884.594	78.919983
884.788	78.818661
884.982	79.061299
885.175	79.033048
885.369	78.985863
885.563	78.672552
885.756	78.397922
885.950	78.076360
886.144	77.795127
886.337	77.740458
886.531	77.640904
886.724	77.587637
886.918	77.692894
887.112	77.239726
887.305	76.977422
887.499	76.855682
887.692	77.294044
887.885	77.862059
888.079	78.222327
888.272	78.961347
888.466	79.639909
888.659	79.815338
888.853	79.873152
889.046	79.303841
889.239	78.907372
889.433	78.724193
889.626	78.300808
889.819	77.178319
890.013	75.881441
890.206	74.814582
890.399	73.607876
890.592	72.367963
890.785	72.159581
890.979	72.275866
891.172	72.943117
891.365	73.271292
891.558	73.220351
891.751	73.762146
891.944	74.656316
892.137	75.300725
892.330	75.849504
892.524	76.308091
892.717	76.931260
892.910	76.669872
893.103	76.029705
893.296	74.967374
893.488	73.945574
893.681	73.127127
893.874	72.372117
894.067	72.004598
894.260	72.279581
894.453	72.756061
894.646	73.137942
894.839	73.278536
895.031	73.926807
895.224	74.783450
895.417	75.909374
895.610	77.318520
895.802	78.304947
895.995	78.834990
896.188	78.782798
896.381	78.207422
896.573	77.827463
896.766	77.992451
896.958	78.197225
897.151	78.016159
897.344	78.004489
897.536	77.754750
897.729	77.349929
897.921	77.408588
898.114	77.270780
898.306	77.657114
898.499	78.185086
898.691	78.734959
898.884	78.753824
899.076	78.475540
899.269	78.482559
899.461	78.260597
899.653	77.885538
899.846	77.879454
900.038	77.708045
900.230	77.966511
900.423	78.224772
900.615	78.857774
900.807	79.277422
901.000	79.373417
901.192	79.388765
901.384	79.158069
901.576	79.020563
901.768	79.226915
901.961	79.756131
902.153	80.431944
902.345	81.084330
902.537	81.307056
902.729	81.018574
902.921	80.686804
903.113	81.011038
903.305	81.928341
903.497	82.719319
903.689	83.596232
903.881	84.087654
904.073	84.018568
904.265	83.804265
904.457	83.956004
904.649	84.373167
904.841	85.182636
905.033	86.148769
905.224	86.886113
905.416	86.997468
905.608	86.902366
905.800	86.904128
905.992	87.110479
906.183	87.343300
906.375	87.722234
906.567	87.639329
906.759	87.522209
906.950	87.525246
907.142	87.134657
907.334	86.210128
907.525	85.526747
907.717	85.142334
907.909	84.431940
908.100	83.638905
908.292	82.945184
908.483	82.179635
908.675	81.567661
908.866	81.086347
909.058	80.521753
909.249	80.370733
909.441	80.716720
909.632	80.909151
909.824	80.634751
910.015	80.592577
910.206	80.779971
910.398	80.963943
910.589	81.380449
910.780	81.777356
910.972	82.010291
911.163	81.815101
911.354	81.149907
911.546	80.512750
911.737	80.475105
911.928	80.928453
912.119	81.169351
912.310	81.617612
912.502	81.815322
912.693	81.688532
912.884	81.300375
913.075	80.462832
913.266	80.155317
913.457	80.487992
913.648	80.639772
913.839	79.978816
914.030	79.428270
914.221	79.390530
914.412	79.296898
914.603	79.558317
914.794	80.171970
914.985	80.970477
915.176	82.330077
915.367	83.209827
915.558	83.926439
915.749	84.730888
915.940	86.039338
916.130	87.314820
916.321	88.518691
916.512	89.331987
916.703	89.732195
916.893	90.098784
917.084	90.355145
917.275	90.673042
917.466	91.016429
917.656	90.980934
917.847	91.111335
918.038	90.734511
918.228	90.009869
918.419	89.034382
918.609	88.082544
918.800	87.521679
918.990	86.906328
919.181	86.545150
919.372	85.724414
919.562	84.990240
919.753	84.408954
919.943	83.548164
920.133	83.112604
920.324	83.580336
920.514	83.784789
920.705	84.210146
920.895	84.276974
921.085	84.025907
921.276	83.417862
921.466	83.442009
921.656	83.789566
921.847	83.072300
922.037	82.336785
922.227	81.872938
922.417	80.828210
922.608	80.658796
922.798	80.725064
922.988	80.958127
923.178	80.990570
923.368	81.581036
923.558	81.569407
923.748	80.867350
923.939	80.975686
924.129	80.960706
924.319	81.105488
924.509	81.665282
924.699	81.380139
924.889	80.881112
925.079	80.652280
925.269	80.619726
925.459	80.245132
925.648	80.257204
925.838	80.778462
926.028	81.697849
926.218	83.054703
926.408	84.287174
926.598	85.130377
926.788	85.897570
926.977	86.460134
927.167	87.036713
927.357	87.573492
927.547	87.984274
927.736	88.427007
927.926	88.658548
928.116	88.075365
928.305	87.761976
928.495	87.187324
928.685	86.351734
928.874	86.241076
929.064	86.251296
929.253	86.151897
929.443	86.619032
929.633	87.244056
929.822	86.945532
930.012	86.672077
930.201	86.931723
930.391	86.688061
930.580	86.601217
930.769	86.897980
930.959	86.754931
931.148	86.925744
931.338	86.938544
931.527	86.515798
931.716	85.636292
931.906	85.379502
932.095	84.890078
932.284	84.423432
932.474	84.843783
932.663	85.051073
932.852	84.862337
933.041	84.356162
933.230	83.971640
933.420	84.229693
933.609	84.692251
933.798	85.317578
933.987	85.631370
934.176	86.188824
934.365	86.561273
934.554	86.355616
934.743	86.236055
934.932	86.376097
935.121	86.684417
935.310	86.294940
935.499	84.988472
935.688	84.210289
935.877	84.249696
936.066	85.144148
936.255	86.172853
936.444	87.103125
936.633	87.642380
936.822	88.079784
937.010	88.451293
937.199	88.914694
937.388	89.816291
937.577	90.549627
937.766	90.280131
937.954	89.072821
938.143	87.913690
938.332	87.174372
938.520	86.327419
938.709	85.761504
938.898	85.341413
939.086	84.472194
939.275	83.535889
939.464	82.589783
939.652	82.104888
939.841	82.072589
940.029	82.365060
940.218	82.580347
940.406	82.439800
940.595	82.658097
940.783	82.692688
940.972	82.702919
941.160	82.880424
941.349	83.002503
941.537	83.224689
941.725	83.557333
941.914	83.371046
942.102	82.985962
942.290	82.520528
942.479	82.002977
942.667	81.608650
942.855	81.264086
943.043	80.789857
943.232	80.771824
943.420	81.125793
943.608	81.268546
943.796	81.449675
943.984	81.691957
944.172	81.757394
944.361	81.679736
944.549	81.530093
944.737	81.014018
944.925	81.005770
945.113	81.355695
945.301	81.626261
945.489	81.371277
945.677	80.632070
945.865	79.909499
946.053	79.793922
946.241	80.341521
946.429	80.755566
946.617	81.093106
946.805	81.855798
946.992	82.122599
947.180	82.036001
947.368	81.794767
947.556	81.614359
947.744	82.030884
947.931	82.553353
948.119	82.555058
948.307	82.394130
948.495	82.079003
948.682	81.861429
948.870	81.428563
949.058	81.525185
949.245	81.770796
949.433	82.038686
949.621	82.610246
949.808	83.083813
949.996	83.293367
950.183	83.857395
950.371	83.729187
950.558	83.678861
950.746	84.328965
950.933	84.885648
951.121	84.773840
951.308	84.633058
951.496	84.675455
951.683	84.743307
951.870	85.026141
952.058	85.475807
952.245	85.369495
952.433	85.436388
952.620	85.960799
952.807	85.491096
952.994	85.505962
953.182	85.893091
953.369	86.078501
953.556	86.054448
953.743	85.531273
953.931	84.660985
954.118	84.050412
954.305	84.059269
954.492	84.417145
954.679	84.500081
954.866	84.922966
955.053	84.480595
955.240	83.825584
955.427	83.449113
955.615	83.263900
955.802	83.422216
955.989	83.784815
956.175	83.663733
956.362	83.892706
956.549	84.187164
956.736	84.410492
956.923	84.351020
957.110	84.428781
957.297	84.040368
957.484	83.986535
957.671	84.039949
957.857	84.142034
958.044	84.042817
958.231	83.916217
958.418	83.547001
958.604	83.271030
958.791	82.741202
958.978	82.146436
959.165	81.939641
959.351	82.825573
959.538	83.050358
959.724	83.057889
959.911	83.274573
960.098	83.325780
960.284	83.669797
960.471	83.442254
960.657	83.480519
960.844	83.822476
961.030	84.136105
961.217	84.980906
961.403	85.041466
961.590	84.923543
961.776	84.800295
961.963	84.854133
962.149	85.621441
962.335	86.233937
962.522	87.172161
962.708	88.080870
962.894	88.368189
963.081	89.320568
963.267	89.666945
963.453	89.945367
963.639	90.173589
963.826	89.767790
964.012	88.676029
964.198	87.486849
964.384	86.787696
964.570	85.864619
964.756	84.134134
964.943	83.180463
965.129	82.223742
965.315	81.835141
965.501	81.482729
965.687	81.753800
965.873	82.049688
966.059	82.442867
966.245	82.673724
966.431	81.806148
966.617	81.779168
966.803	81.867380
966.989	82.568192
967.174	83.353918
967.360	82.953697
967.546	82.946854
967.732	82.775147
967.918	82.330306
968.104	82.757955
968.289	82.990000
968.475	84.030796
968.661	84.395238
968.847	84.922193
969.032	85.143866
969.218	84.793773
969.404	85.156747
969.589	85.263498
969.775	85.524300
969.961	86.534503
970.146	87.039736
970.332	87.747163
970.517	88.473963
970.703	88.979231
970.888	89.349411
971.074	89.046800
971.260	88.950477
971.445	88.974059
971.630	88.973557
971.816	88.664753
972.001	88.689452
972.187	88.318526
972.372	87.698315
972.557	86.782570
972.743	86.696716
972.928	86.733263
973.113	86.856588
973.299	87.283740
973.484	88.184174
973.669	88.952705
973.854	89.038599
974.040	89.469033
974.225	89.926935
974.410	90.305845
974.595	90.571012
974.780	90.465592
974.965	90.345478
975.151	90.510019
975.336	90.756336
975.521	89.647866
975.706	89.329827
975.891	89.827644
976.076	90.277110
976.261	90.549397
976.446	90.543101
976.631	90.953729
976.816	90.915120
977.001	91.044187
977.186	91.232644
977.370	90.773414
977.555	91.177084
977.740	91.137911
977.925	90.752177
978.110	89.213715
978.295	88.535871
978.479	88.011874
978.664	87.683726
978.849	87.397704
979.034	86.473857
979.218	85.797614
979.403	86.012621
979.588	85.813466
979.772	84.758519
979.957	84.335058
980.141	84.932207
980.326	84.886313
980.511	84.758960
980.695	84.290558
980.880	83.366840
981.064	83.192162
981.249	83.196792
981.433	82.446783
981.618	82.473550
981.802	82.874366
981.987	82.680684
982.171	82.323658
982.355	82.469721
982.540	82.801334
982.724	83.349796
982.908	84.860568
983.093	86.243658
983.277	87.306257
983.461	88.602780
983.646	89.547289
983.830	90.634211
984.014	91.877478
984.198	92.431856
984.382	92.763418
984.567	93.641344
984.751	93.236661
984.935	92.722604
985.119	91.748568
985.303	90.547832
985.487	89.528559
985.671	87.959734
985.855	87.433915
986.039	87.964475
986.223	88.706351
986.407	88.795254
986.591	88.661317
986.775	89.788269
986.959	90.272851
987.143	90.580755
987.327	91.100363
987.511	91.210408
987.695	91.121884
987.879	90.599640
988.062	89.799071
988.246	89.361774
988.430	88.993779
988.614	88.323396
988.797	87.143568
988.981	86.824049
989.165	87.510967
989.349	87.484608
989.532	87.452776
989.716	88.051273
989.900	88.420559
990.083	88.031736
990.267	87.123189
990.450	87.294795
990.634	87.769937
990.817	88.781226
991.001	89.969118
991.184	89.690693
991.368	90.406537
991.551	91.520107
991.735	92.425505
991.918	93.274846
992.102	94.346194
992.285	95.828547
992.469	96.416950
992.652	96.593725
992.835	96.265872
993.019	95.147956
993.202	95.843104
993.385	95.842795
993.568	95.394904
993.752	94.635588
993.935	93.811203
994.118	92.978992
994.301	91.707577
994.484	90.589286
994.668	90.118744
994.851	90.204956
995.034	90.378695
995.217	89.741295
995.400	89.470743
995.583	89.253785
995.766	89.875308
995.949	90.710346
996.132	91.649605
996.315	92.453496
996.498	92.949236
996.681	93.923600
996.864	93.606015
997.047	93.759656
997.230	93.678676
997.413	93.264879
997.596	92.828596
997.778	91.417240
997.961	90.265520
998.144	89.056596
998.327	87.854055
998.510	87.350145
998.692	86.546596
998.875	86.852713
999.058	86.579549
999.241	86.147691
999.423	85.904504
999.606	85.657990
999.789	86.622853
999.971	86.895291
1000.154	87.094387
1000.336	87.822677
1000.519	88.302932
1000.701	87.878697
1000.884	88.012634
1001.067	88.517097
1001.249	88.504355
1001.431	88.482439
1001.614	88.928253
1001.796	88.617643
1001.979	88.232301
1002.161	88.199932
1002.344	87.962949
1002.526	87.472080
1002.708	86.728894
1002.891	86.128175
1003.073	85.755595
1003.255	86.220297
1003.438	87.477951
1003.620	88.422555
1003.802	89.353800
1003.984	90.686436
1004.166	91.449980
1004.349	92.667704
1004.531	93.766452
1004.713	95.002058
1004.895	95.311937
1005.077	94.613072
1005.259	94.994892
1005.441	94.627653
1005.623	93.965683
1005.805	93.831653
1005.987	93.130310
1006.169	93.293576
1006.351	93.359020
1006.533	93.655203
1006.715	93.557770
1006.897	93.467165
1007.079	94.650228
1007.261	94.093309
1007.443	93.922359
1007.625	93.847854
1007.806	92.961683
1007.988	93.271430
1008.170	93.187705
1008.352	92.910976
1008.534	92.441717
1008.715	93.675198
1008.897	94.232987
1009.079	93.958219
1009.260	94.647224
1009.442	94.271090
1009.624	93.474216
1009.805	93.015899
1009.987	92.028839
1010.169	91.114867
1010.350	90.567711
1010.532	90.046838
1010.713	89.050662
1010.895	89.305469
1011.076	89.598270
1011.258	90.037388
1011.439	90.922403
1011.621	92.433248
1011.802	93.546859
1011.983	94.444778
1012.165	95.127129
1012.346	95.636815
1012.527	96.244971
1012.709	96.659229
1012.890	96.896422
1013.071	95.947969
1013.253	94.187514
1013.434	93.078584
1013.615	92.142182
1013.796	91.025226
1013.978	90.690512
1014.159	90.551931
1014.340	90.739220
1014.521	90.069698
1014.702	89.753609
1014.883	89.192223
1015.064	89.076019
1015.245	89.635923
1015.427	90.155153
1015.608	89.953560
1015.789	90.165776
1015.970	89.299028
1016.151	89.384608
1016.332	88.494299
1016.512	87.801386
1016.693	87.220396
1016.874	87.004824
1017.055	87.224398
1017.236	87.572854
1017.417	88.536659
1017.598	89.345666
1017.779	89.882555
1017.959	91.076146
1018.140	90.753596
1018.321	91.525830
1018.502	92.963128
1018.682	92.379637
1018.863	92.595222
1019.044	93.556367
1019.224	94.291811
1019.405	93.451871
1019.586	92.365653
1019.766	91.503049
1019.947	91.285486
1020.127	91.462808
1020.308	89.855419
1020.488	88.850875
1020.669	89.811741
1020.849	89.477912
1021.030	88.661794
1021.210	88.135500
1021.391	87.556567
1021.571	88.344087
1021.752	89.019566
1021.932	88.246403
1022.112	87.423831
1022.293	88.468650
1022.473	88.678588
1022.653	88.802051
1022.834	89.705465
1023.014	89.915751
1023.194	89.285123
1023.374	90.013893
1023.555	90.807396
1023.735	91.094924
1023.915	91.435993
1024.095	90.457678
1024.275	89.569157
1024.455	89.959447
1024.635	90.579339
1024.816	89.966749
1024.996	90.040999
1025.176	90.466700
1025.356	90.509853
1025.536	89.549280
1025.716	89.198161
1025.896	89.554989
1026.076	91.405639
1026.256	92.481087
1026.436	92.185323
1026.615	91.750371
1026.795	91.614120
1026.975	91.878002
1027.155	91.405000
1027.335	90.540091
1027.515	89.996010
1027.695	90.100801
1027.874	91.579273
1028.054	92.309619
1028.234	92.887575
1028.413	93.325060
1028.593	93.985174
1028.773	94.772399
1028.953	94.197761
1029.132	94.572001
1029.312	96.069118
1029.491	97.213378
1029.671	98.385247
1029.851	97.400012
1030.030	96.609584
1030.210	97.127697
1030.389	97.962420
1030.569	97.438670
1030.748	96.511482
1030.928	96.843243
1031.107	97.243688
1031.286	96.255775
1031.466	95.416679
1031.645	93.307946
1031.825	92.414684
1032.004	92.264223
1032.183	92.055236
1032.363	91.169657
1032.542	90.202890
1032.721	90.620415
1032.900	89.756902
1033.080	89.360256
1033.259	88.966008
1033.438	88.327563
1033.617	88.668516
1033.796	88.317938
1033.975	88.721867
1034.155	87.936742
1034.334	87.588232
1034.513	88.846705
1034.692	89.628462
1034.871	90.370055
1035.050	89.586618
1035.229	89.632705
1035.408	89.416286
1035.587	89.555688
1035.766	90.267403
1035.945	89.917774
1036.124	89.488059
1036.303	88.889378
1036.481	87.568005
1036.660	86.858663
1036.839	87.156074
1037.018	88.580015
1037.197	88.794882
1037.376	90.348655
1037.554	91.400627
1037.733	91.110458
1037.912	90.958658
1038.091	91.398170
1038.269	92.738021
1038.448	92.586151
1038.627	92.485396
1038.805	92.013552
1038.984	91.278744
1039.162	90.975475
1039.341	91.038619
1039.520	90.920465
1039.698	91.582110
1039.877	91.859684
1040.055	91.482193
1040.234	91.518330
1040.412	92.795824
1040.591	93.446789
1040.769	93.478874
1040.947	93.244124
1041.126	93.199930
1041.304	92.258352
1041.483	90.841332
1041.661	89.473154
1041.839	88.942649
1042.017	88.378951
1042.196	87.486840
1042.374	87.005143
1042.552	87.569550
1042.730	88.254653
1042.909	88.357529
1043.087	89.186063
1043.265	89.380206
1043.443	89.734233
1043.621	89.921783
1043.799	89.070797
1043.978	89.263859
1044.156	90.058845
1044.334	90.599295
1044.512	89.897016
1044.690	89.104537
1044.868	89.446327
1045.046	89.598220
1045.224	90.132133
1045.402	90.068648
1045.580	90.553475
1045.758	91.483855
1045.935	91.628086
1046.113	90.759087
1046.291	89.555967
1046.469	88.171106
1046.647	87.408974
1046.825	86.796695
1047.002	85.813085
1047.180	85.637671
1047.358	86.429881
1047.536	85.958968
1047.713	85.944953
1047.891	86.610476
1048.069	87.591274
1048.246	88.289932
1048.424	88.347963
1048.602	88.771407
1048.779	89.371440
1048.957	89.598260
1049.134	89.694996
1049.312	90.155681
1049.489	90.262917
1049.667	90.471890
1049.844	90.559497
1050.022	89.965773
1050.199	90.413029
1050.377	90.972682
1050.554	91.153691
1050.731	90.681708
1050.909	90.503460
1051.086	89.592947
1051.263	88.768901
1051.441	90.058936
1051.618	90.607431
1051.795	90.239434
1051.973	89.320417
1052.150	88.901529
1052.327	89.592719
1052.504	90.466172
1052.681	91.394875
1052.859	92.164681
1053.036	93.178391
1053.213	93.645668
1053.390	92.709453
1053.567	92.102880
1053.744	91.918054
1053.921	92.355452
1054.098	91.585197
1054.275	91.093135
1054.452	90.456898
1054.629	88.805163
1054.806	87.890618
1054.983	88.044357
1055.160	88.512380
1055.337	89.225149
1055.514	88.601824
1055.691	87.837214
1055.868	88.644583
1056.044	89.847376
1056.221	90.003823
1056.398	90.879218
1056.575	92.163584
1056.751	92.801475
1056.928	92.139444
1057.105	91.653700
1057.282	91.454525
1057.458	92.607346
1057.635	93.591285
1057.812	92.653442
1057.988	91.197617
1058.165	90.962330
1058.341	90.044966
1058.518	89.682557
1058.694	89.504648
1058.871	89.472287
1059.047	89.145991
1059.224	89.026080
1059.401	88.532888
1059.577	88.072839
1059.753	88.236693
1059.930	88.798771
1060.106	88.942925
1060.282	88.721371
1060.459	88.510805
1060.635	88.209977
1060.812	88.240016
1060.988	87.709738
1061.164	87.267940
1061.340	87.118974
1061.517	86.352346
1061.693	86.868831
1061.869	86.770130
1062.045	85.675465
1062.221	86.197923
1062.398	86.724720
1062.574	86.554027
1062.750	86.972505
1062.926	87.901170
1063.102	87.542954
1063.278	87.055650
1063.454	87.054596
1063.630	86.244799
1063.806	86.711207
1063.982	87.826686
1064.158	87.100195
1064.334	86.535384
1064.510	86.477935
1064.686	85.666748
1064.862	84.836256
1065.038	85.345023
1065.214	84.976940
1065.389	86.218828
1065.565	86.937665
1065.741	86.661035
1065.917	86.920523
1066.093	87.078272
1066.268	87.005600
1066.444	87.475331
1066.620	87.732051
1066.795	87.617710
1066.971	87.149636
1067.147	87.407943
1067.322	86.046130
1067.498	85.368334
1067.673	85.683851
1067.849	84.782949
1068.025	85.429214
1068.200	85.988421
1068.376	85.285676
1068.551	84.843173
1068.727	85.276306
1068.902	86.083030
1069.078	86.336899
1069.253	87.326442
1069.428	87.392910
1069.604	86.590497
1069.779	86.673107
1069.954	86.218244
1070.130	86.174251
1070.305	86.908173
1070.480	88.047057
1070.656	88.411165
1070.831	88.109029
1071.006	88.342839
1071.181	88.050633
1071.357	88.612889
1071.532	89.189565
1071.707	89.557110
1071.882	88.845649
1072.057	88.159945
1072.232	88.010569
1072.407	86.402927
1072.582	85.603400
1072.757	85.723469
1072.932	84.697320
1073.107	83.968275
1073.282	83.513888
1073.457	83.142612
1073.632	82.482037
1073.807	81.975886
1073.982	82.038187
1074.157	81.766801
1074.332	81.986266
1074.507	81.867056
1074.682	80.619839
1074.856	80.818649
1075.031	81.459644
1075.206	81.647464
1075.381	81.659530
1075.556	81.746017
1075.730	82.783916
1075.905	82.651959
1076.080	82.562784
1076.254	82.972734
1076.429	83.493973
1076.604	84.054847
1076.778	84.126783
1076.953	83.722914
1077.127	83.013039
1077.302	82.348301
1077.477	83.157351
1077.651	82.936539
1077.826	82.314916
1078.000	82.153541
1078.175	82.085507
1078.349	82.501551
1078.523	83.306394
1078.698	83.887712
1078.872	84.238813
1079.047	85.160028
1079.221	86.087907
1079.395	86.245167
1079.570	86.634840
1079.744	87.272780
1079.918	87.656343
1080.092	87.606488
1080.267	86.745319
1080.441	85.326707
1080.615	84.963415
1080.789	84.338262
1080.963	82.892912
1081.137	82.117196
1081.312	80.714200
1081.486	79.668124
1081.660	79.933965
1081.834	79.707159
1082.008	79.620642
1082.182	79.862972
1082.356	80.347295
1082.530	81.237552
1082.704	82.287019
1082.878	83.132354
1083.052	83.427884
1083.226	84.140655
1083.400	84.556169
1083.573	83.604339
1083.747	83.187802
1083.921	83.145881
1084.095	82.560539
1084.269	82.154777
1084.443	81.437399
1084.616	81.485835
1084.790	81.816915
1084.964	81.056352
1085.138	80.534392
1085.311	80.714896
1085.485	81.306917
1085.659	81.370978
1085.832	81.586187
1086.006	81.674770
1086.179	82.228009
1086.353	82.036987
1086.527	81.723008
1086.700	81.426650
1086.874	82.312631
1087.047	82.366229
1087.221	82.055655
1087.394	82.083799
1087.568	82.205779
1087.741	82.010424
1087.914	81.764722
1088.088	81.401622
1088.261	81.279582
1088.435	80.200815
1088.608	79.598816
1088.781	78.661885
1088.954	78.615287
1089.128	78.896060
1089.301	78.643431
1089.474	78.285895
1089.647	77.944120
1089.821	78.115002
1089.994	77.596188
1090.167	77.245699
1090.340	77.406387
1090.513	77.262214
1090.686	78.232973
1090.859	78.588614
1091.032	77.936004
1091.206	77.314673
1091.379	76.417704
1091.552	76.126025
1091.725	75.501071
1091.898	75.660687
1092.071	76.561516
1092.244	76.614900
1092.416	76.613861
1092.589	75.818204
1092.762	74.507095
1092.935	74.471161
1093.108	75.529681
1093.281	76.174728
1093.453	76.621934
1093.626	76.919503
1093.799	76.859055
1093.972	76.377601
1094.145	76.725176
1094.317	77.274677
1094.490	77.658538
1094.663	79.137730
1094.835	79.515572
1095.008	79.211901
1095.181	79.890739
1095.353	79.800660
1095.526	79.855265
1095.698	80.215958
1095.871	79.825450
1096.043	80.273497
1096.216	80.207802
1096.388	80.413181
1096.561	80.271717
1096.733	80.257444
1096.906	80.015531
1097.078	79.097602
1097.250	79.049421
1097.423	78.872604
1097.595	78.593483
1097.768	78.096517
1097.940	76.978562
1098.112	76.319283
1098.284	75.788983
1098.457	75.015029
1098.629	74.792720
1098.801	75.003394
1098.973	75.574985
1099.146	75.394318
1099.318	75.561409
1099.490	76.307583
1099.662	77.129920
1099.834	77.512995
1100.006	77.964418
1100.178	78.057880
1100.350	77.806310
1100.522	77.559899
1100.694	76.228027
1100.866	75.917577
1101.038	76.720058
1101.210	77.563913
1101.382	76.982627
1101.554	76.738892
1101.726	76.954119
1101.898	77.301730
1102.070	77.215043
1102.241	77.740828
1102.413	77.902040
1102.585	78.215039
1102.757	77.792054
1102.929	77.153247
1103.100	76.215181
1103.272	75.427150
1103.444	74.868681
1103.616	74.468309
1103.787	73.827773
1103.959	73.891050
1104.130	73.464416
1104.302	72.949799
1104.474	73.151539
1104.645	73.406770
1104.817	73.076780
1104.988	72.858331
1105.160	72.721944
1105.331	72.586058
1105.503	72.532310
1105.674	71.946627
1105.846	71.505109
1106.017	72.308658
1106.189	72.763799
1106.360	73.321411
1106.531	73.779863
1106.703	73.520398
1106.874	73.159623
1107.045	73.391810
1107.217	73.200529
1107.388	72.465780
1107.559	72.291863
1107.730	71.881310
1107.902	70.887306
1108.073	70.376143
1108.244	69.762656
1108.415	68.661079
1108.586	68.351291
1108.757	68.447307
1108.929	68.217120
1109.100	67.826700
1109.271	67.825386
1109.442	68.025328
1109.613	67.979731
1109.784	68.086566
1109.955	68.121940
1110.126	67.465764
1110.297	67.777373
1110.468	67.769777
1110.639	67.660930
1110.809	67.638530
1110.980	67.743325
1111.151	67.913768
1111.322	67.740246
1111.493	67.463583
1111.664	66.727519
1111.834	66.702884
1112.005	67.044523
1112.176	67.004230
1112.347	67.582396
1112.517	67.848195
1112.688	67.959626
1112.859	68.033404
1113.029	67.975558
1113.200	68.477120
1113.371	68.845140
1113.541	69.394277
1113.712	69.504775
1113.882	69.454838
1114.053	69.604748
1114.223	69.553829
1114.394	69.175377
1114.564	68.615146
1114.735	68.973427
1114.905	69.235659
1115.076	68.821457
1115.246	68.997087
1115.416	68.957209
1115.587	68.697963
1115.757	68.342344
1115.927	68.239439
1116.098	67.665641
1116.268	67.821679
1116.438	68.776079
1116.609	68.553458
1116.779	68.400494
1116.949	68.750974
1117.119	68.497640
1117.289	68.386970
1117.459	68.514525
1117.630	68.823134
1117.800	68.605472
1117.970	68.678814
1118.140	68.061505
1118.310	66.707045
1118.480	66.429107
1118.650	65.744136
1118.820	65.103241
1118.990	65.246695
1119.160	64.962956
1119.330	64.582745
1119.500	64.019561
1119.670	63.949716
1119.840	63.631353
1120.010	64.080754
1120.179	64.593961
1120.349	64.229727
1120.519	64.492110
1120.689	64.413428
1120.859	64.052504
1121.028	63.968806
1121.198	63.742839
1121.368	63.839375
1121.538	63.523261
1121.707	63.568960
1121.877	63.235185
1122.047	62.745058
1122.216	62.939873
1122.386	63.342021
1122.555	63.334838
1122.725	63.345343
1122.894	63.312622
1123.064	63.111001
1123.233	62.945215
1123.403	62.754658
1123.573	62.560655
1123.742	62.431421
1123.911	62.353123
1124.081	62.201686
1124.250	61.520669
1124.419	60.834525
1124.589	60.427909
1124.758	60.256129
1124.927	60.469830
1125.097	60.603468
1125.266	60.780280
1125.435	61.005146
1125.605	61.281581
1125.774	61.569686
1125.943	61.786941
1126.112	62.119536
1126.281	62.935437
1126.450	63.296119
1126.620	63.369304
1126.789	63.509453
1126.958	62.896417
1127.127	62.560725
1127.296	62.510842
1127.465	62.556129
1127.634	62.303052
1127.803	61.702500
1127.972	61.395529
1128.141	61.178538
1128.310	61.185391
1128.479	61.156813
1128.648	60.792379
1128.817	60.906430
1128.985	60.633390
1129.154	60.422255
1129.323	59.957104
1129.492	59.790271
1129.661	59.765368
1129.829	59.402924
1129.998	59.194035
1130.167	58.982753
1130.336	58.741612
1130.504	58.491650
1130.673	58.769392
1130.842	59.059142
1131.010	58.536711
1131.179	58.079962
1131.347	57.804319
1131.516	57.241997
1131.685	57.385415
1131.853	57.408290
1132.022	57.475434
1132.190	57.607937
1132.359	57.827049
1132.527	57.445975
1132.696	56.967799
1132.864	56.834638
1133.032	56.958565
1133.201	56.922186
1133.369	57.606406
1133.537	57.620678
1133.706	57.459418
1133.874	57.018376
1134.042	56.827831
1134.211	56.261776
1134.379	55.934802
1134.547	56.143558
1134.715	56.601910
1134.884	56.768812
1135.052	57.046218
1135.220	56.437615
1135.388	55.986900
1135.556	56.143206
1135.724	55.922911
1135.892	56.016105
1136.060	56.571860
1136.228	57.027211
1136.396	56.879677
1136.564	56.279828
1136.732	55.960819
1136.900	55.803731
1137.068	56.339782
1137.236	56.473737
1137.404	56.023000
1137.572	56.029931
1137.740	55.711040
1137.908	55.518628
1138.076	55.456345
1138.243	55.739507
1138.411	56.021061
1138.579	56.094363
1138.747	55.868715
1138.914	55.646111
1139.082	55.379749
1139.250	54.783761
1139.417	54.392835
1139.585	54.090298
1139.753	53.908851
1139.920	53.423057
1140.088	53.035855
1140.256	52.836461
1140.423	52.557076
1140.591	52.564901
1140.758	52.684655
1140.926	53.054627
1141.093	53.775312
1141.261	54.148602
1141.428	54.572118
1141.596	54.574459
1141.763	54.614062
1141.930	54.338730
1142.098	54.133314
1142.265	54.149200
1142.432	54.187232
1142.600	54.011444
1142.767	53.578255
1142.934	53.191219
1143.102	53.260319
1143.269	53.164175
1143.436	53.150191
1143.603	53.494943
1143.771	54.258922
1143.938	54.551154
1144.105	54.386570
1144.272	54.303990
1144.439	54.127707
1144.606	54.206121
1144.773	53.997125
1144.940	53.049181
1145.107	52.598501
1145.274	52.600755
1145.441	52.377760
1145.608	51.563578
1145.775	51.556371
1145.942	51.721814
1146.109	51.791752
1146.276	52.276934
1146.443	52.170812
1146.610	52.335441
1146.776	53.654206
1146.943	53.813115
1147.110	53.505852
1147.277	53.084335
1147.444	53.002201
1147.610	52.996728
1147.777	52.829935
1147.944	52.307329
1148.110	51.750827
1148.277	51.662481
1148.444	50.850855
1148.610	49.604144
1148.777	49.619061
1148.944	49.504063
1149.110	49.814462
1149.277	50.224112
1149.443	49.639265
1149.610	49.342538
1149.776	49.514103
1149.943	49.184975
1150.109	48.929097
1150.276	49.628805
1150.442	50.332413
1150.608	50.357800
1150.775	50.590245
1150.941	50.125154
1151.107	49.678376
1151.274	50.200570
1151.440	49.659265
1151.606	49.187318
1151.773	49.211702
1151.939	49.353635
1152.105	49.630853
1152.271	49.811811
1152.438	49.445154
1152.604	48.494543
1152.770	48.551531
1152.936	48.798157
1153.102	48.473707
1153.268	48.975012
1153.434	49.543819
1153.600	49.355600
1153.766	49.445561
1153.932	48.487704
1154.098	47.452859
1154.264	47.033173
1154.430	47.542412
1154.596	47.537994
1154.762	47.049871
1154.928	47.072317
1155.094	47.013303
1155.260	46.577987
1155.426	46.834267
1155.591	46.514211
1155.757	46.870675
1155.923	47.358677
1156.089	47.814591
1156.255	47.520901
1156.420	47.057279
1156.586	47.229991
1156.752	47.211847
1156.917	47.268673
1157.083	46.973869
1157.249	46.254144
1157.414	45.901038
1157.580	45.755985
1157.745	45.536159
1157.911	45.329097
1158.076	45.198400
1158.242	45.520048
1158.407	45.533949
1158.573	44.974908
1158.738	44.567086
1158.904	44.828231
1159.069	45.107279
1159.235	45.365697
1159.400	45.705638
1159.565	46.106838
1159.731	46.225265
1159.896	46.518588
1160.061	46.428262
1160.227	46.208461
1160.392	46.421204
1160.557	46.700728
1160.722	46.453320
1160.888	46.501175
1161.053	46.661220
1161.218	46.398307
1161.383	46.055940
1161.548	46.286258
1161.713	46.509437
1161.878	46.589218
1162.043	46.967912
1162.208	47.357132
1162.374	47.515742
1162.539	47.395521
1162.704	47.506188
1162.869	47.671526
1163.033	48.436911
1163.198	48.915695
1163.363	48.744349
1163.528	48.183776
1163.693	48.151899
1163.858	48.017071
1164.023	47.925153
1164.188	47.913110
1164.353	47.874467
1164.517	47.636691
1164.682	47.115102
1164.847	46.082801
1165.011	45.373830
1165.176	44.982353
1165.341	45.348099
1165.506	45.484194
1165.670	45.852138
1165.835	46.045469
1166.000	45.986364
1166.164	46.413174
1166.329	46.499541
1166.493	46.552855
1166.658	46.461464
1166.822	46.707336
1166.987	47.125028
1167.151	47.108756
1167.316	47.173048
1167.480	46.533896
1167.645	46.370502
1167.809	45.962364
1167.973	45.873626
1168.138	46.350188
1168.302	46.673869
1168.466	47.019116
1168.631	47.045523
1168.795	46.722425
1168.959	46.567570
1169.124	46.117524
1169.288	45.849973
1169.452	45.503674
1169.616	45.305803
1169.780	45.125443
1169.944	44.329290
1170.109	43.992907
1170.273	44.384935
1170.437	44.200449
1170.601	43.691680
1170.765	43.330602
1170.929	43.310171
1171.093	43.281777
1171.257	43.174622
1171.421	42.999038
1171.585	42.967562
1171.749	43.543090
1171.913	43.268139
1172.077	42.619892
1172.240	42.697353
1172.404	43.350922
1172.568	43.660090
1172.732	44.213898
1172.896	44.766328
1173.060	44.809771
1173.223	45.428759
1173.387	46.154957
1173.551	46.198865
1173.715	46.579804
1173.878	46.806187
1174.042	46.928769
1174.206	46.476147
1174.369	46.214409
1174.533	45.686424
1174.696	45.130178
1174.860	45.205836
1175.023	45.430876
1175.187	45.026517
1175.351	44.709386
1175.514	44.683242
1175.677	44.677312
1175.841	44.267528
1176.004	44.465769
1176.168	44.801730
1176.331	44.801600
1176.495	44.664171
1176.658	44.632218
1176.821	44.399676
1176.985	44.373132
1177.148	44.625774
1177.311	44.440899
1177.474	44.107231
1177.638	44.087500
1177.801	44.397607
1177.964	44.304398
1178.127	44.703515
1178.291	45.192261
1178.454	45.370748
1178.617	45.120316
1178.780	45.021401
1178.943	44.719635
1179.106	45.059895
1179.269	45.445679
1179.432	45.647684
1179.595	45.470245
1179.758	45.641726
1179.921	45.433978
1180.084	45.545488
1180.247	45.275079
1180.410	45.240167
1180.573	45.375267
1180.736	45.459082
1180.899	45.172143
1181.061	44.745384
1181.224	44.439288
1181.387	44.190482
1181.550	44.105979
1181.713	44.290636
1181.875	44.461936
1182.038	44.487394
1182.201	44.921916
1182.363	44.434629
1182.526	44.453422
1182.689	44.550963
1182.851	44.975965
1183.014	45.519342
1183.177	46.087540
1183.339	46.135229
1183.502	46.340268
1183.664	46.252733
1183.827	46.179864
1183.989	45.807187
1184.152	46.207313
1184.314	45.834508
1184.477	45.716974
1184.639	45.591700
1184.801	45.385637
1184.964	45.076829
1185.126	45.069719
1185.288	45.145155
1185.451	45.365089
1185.613	45.693029
1185.775	45.945178
1185.938	45.993885
1186.100	46.220930
1186.262	45.847124
1186.424	45.689145
1186.586	46.086113
1186.749	46.009342
1186.911	45.994843
1187.073	45.825907
1187.235	46.083691
1187.397	46.404942
1187.559	46.557260
1187.721	46.459076
1187.883	46.898606
1188.045	47.350904
1188.207	47.666532
1188.369	47.389357
1188.531	47.621390
1188.693	47.771836
1188.855	47.277358
1189.017	46.482438
1189.179	46.438669
1189.341	46.391856
1189.502	47.028294
1189.664	46.748191
1189.826	46.842478
1189.988	46.820617
1190.150	47.280368
1190.311	47.451191
1190.473	47.401695
1190.635	48.101322
1190.796	48.052795
1190.958	47.860775
1191.120	47.965979
1191.281	47.570390
1191.443	47.610986
1191.604	48.019621
1191.766	48.272599
1191.928	48.162129
1192.089	48.280399
1192.251	48.568073
1192.412	48.399392
1192.574	48.859828
1192.735	48.678633
1192.896	48.744952
1193.058	48.647833
1193.219	48.502780
1193.381	48.320666
1193.542	48.614606
1193.703	48.502164
1193.865	47.998496
1194.026	48.024886
1194.187	47.896051
1194.349	47.861242
1194.510	48.142239
1194.671	48.444001
1194.832	48.891791
1194.993	49.494992
1195.155	49.696314
1195.316	49.363976
1195.477	49.416360
1195.638	49.260233
1195.799	49.166130
1195.960	49.055056
1196.121	49.252867
1196.282	49.815614
1196.443	49.532267
1196.604	49.844436
1196.765	50.159215
1196.926	50.531612
1197.087	51.035870
1197.248	51.350327
1197.409	52.457432
1197.570	52.635085
1197.730	53.188415
1197.891	53.029079
1198.052	52.457847
1198.213	52.675937
1198.374	52.112310
1198.534	51.428976
1198.695	51.011042
1198.856	50.790685
1199.016	50.768664
1199.177	50.565888
1199.338	50.320942
1199.498	50.221252
1199.659	50.669849
1199.820	51.122240
1199.980	51.101490
1200.141	51.304869
1200.301	51.950838
1200.462	51.925184
1200.622	51.704292
1200.783	51.526665
1200.943	51.175911
1201.104	51.134335
1201.264	51.124222
1201.424	50.826886
1201.585	50.565619
1201.745	50.726224
1201.906	50.360308
1202.066	49.959190
1202.226	50.475258
1202.386	50.818145
1202.547	51.067481
1202.707	51.730927
1202.867	52.295441
1203.027	51.889645
1203.188	51.773688
1203.348	51.845512
1203.508	51.682914
1203.668	52.001037
1203.828	52.156620
1203.988	51.808835
1204.148	51.688546
1204.308	51.757830
1204.468	51.292789
1204.628	50.823766
1204.788	50.906455
1204.948	51.087114
1205.108	51.418783
1205.268	51.608239
1205.428	51.763209
1205.588	52.176381
1205.748	52.414957
1205.908	52.728052
1206.068	52.482348
1206.228	52.805272
1206.387	53.228542
1206.547	53.463652
1206.707	53.246798
1206.867	52.592735
1207.026	52.400013
1207.186	52.684640
1207.346	52.382985
1207.505	52.404841
1207.665	51.781712
1207.825	51.498851
1207.984	51.229629
1208.144	50.804692
1208.303	50.608809
1208.463	51.149566
1208.622	51.943543
1208.782	52.500417
1208.941	52.689300
1209.101	52.631700
1209.260	52.757187
1209.420	53.140278
1209.579	53.683056
1209.739	53.693461
1209.898	53.869711
1210.057	54.048731
1210.217	53.679317
1210.376	53.338584
1210.535	52.975181
1210.694	52.556128
1210.854	52.424069
1211.013	52.411949
1211.172	52.417712
1211.331	52.339346
1211.490	52.632966
1211.650	52.887518
1211.809	53.043147
1211.968	53.426930
1212.127	53.627802
1212.286	53.841019
1212.445	54.384556
1212.604	55.211567
1212.763	54.948449
1212.922	55.270138
1213.081	55.828494
1213.240	56.113692
1213.399	56.476748
1213.558	57.100429
1213.717	57.275236
1213.876	57.270025
1214.035	57.403315
1214.194	57.113984
1214.352	56.885481
1214.511	57.622058
1214.670	57.856904
1214.829	57.762177
1214.988	58.032043
1215.146	58.091686
1215.305	57.924000
1215.464	57.787475
1215.622	57.716247
1215.781	57.993279
1215.940	58.233897
1216.098	57.919875
1216.257	57.376328
1216.415	56.817947
1216.574	56.572240
1216.732	56.659549
1216.891	56.648513
1217.049	56.469334
1217.208	56.365442
1217.366	56.360437
1217.525	55.777750
1217.683	55.740849
1217.842	55.625053
1218.000	55.707680
1218.158	56.233293
1218.317	56.674168
1218.475	56.553024
1218.633	56.292746
1218.792	56.412224
1218.950	56.965381
1219.108	57.391136
1219.266	57.716915
1219.425	57.668772
1219.583	58.432312
1219.741	58.378914
1219.899	58.382931
1220.057	58.327778
1220.215	58.132854
1220.373	58.190869
1220.531	58.309974
1220.689	58.190529
1220.847	58.142133
1221.005	57.853042
1221.163	57.701210
1221.322	57.272827
1221.479	57.501266
1221.637	56.844642
1221.795	56.093187
1221.953	55.767353
1222.111	56.019877
1222.269	56.425246
1222.427	56.648100
1222.584	56.591943
1222.742	57.143143
1222.900	57.469790
1223.058	57.559311
1223.216	57.931041
1223.373	58.677874
1223.531	59.715429
1223.689	59.902442
1223.846	59.526303
1224.004	58.976682
1224.162	58.754379
1224.319	58.475180
1224.477	58.217255
1224.634	58.335634
1224.792	58.722813
1224.949	58.766874
1225.107	59.263674
1225.264	58.965668
1225.422	59.449204
1225.579	59.892144
1225.737	60.030525
1225.894	59.811881
1226.052	60.561048
1226.209	61.250457
1226.366	61.832349
1226.523	62.107079
1226.681	62.691833
1226.838	62.676509
1226.995	62.942187
1227.153	63.099717
1227.310	63.610753
1227.467	63.900235
1227.624	64.116199
1227.781	63.809909
1227.938	63.571004
1228.096	63.034162
1228.253	62.478360
1228.410	61.482671
1228.567	61.228017
1228.724	61.131056
1228.881	60.734420
1229.038	60.001301
1229.195	59.865957
1229.352	60.341018
1229.509	60.574011
1229.666	60.936823
1229.823	60.900031
1229.980	61.301800
1230.136	61.567828
1230.293	61.221646
1230.450	60.984149
1230.607	60.843173
1230.764	61.477754
1230.921	61.443146
1231.077	60.945428
1231.234	60.290763
1231.391	59.836124
1231.547	59.307887
1231.704	58.978517
1231.861	59.138859
1232.018	59.127486
1232.174	59.315258
1232.331	59.660267
1232.487	59.563025
1232.644	59.790850
1232.800	59.892686
1232.957	60.406975
1233.113	60.260531
1233.270	60.514257
1233.426	60.864123
1233.583	60.668433
1233.739	60.513695
1233.896	60.563772
1234.052	60.449625
1234.208	60.328259
1234.365	60.131549
1234.521	60.405045
1234.677	60.443485
1234.834	60.529880
1234.990	61.022066
1235.146	61.056665
1235.302	61.347201
1235.459	61.910169
1235.615	61.841502
1235.771	61.913420
1235.927	61.929820
1236.083	61.584133
1236.239	61.365742
1236.396	61.741087
1236.552	62.254077
1236.708	62.362568
1236.864	62.567480
1237.020	62.766966
1237.176	62.636828
1237.332	62.988455
1237.488	63.092952
1237.644	63.058435
1237.799	64.192191
1237.955	64.636830
1238.111	64.549508
1238.267	64.745556
1238.423	64.573173
1238.579	64.504534
1238.734	64.271744
1238.890	64.538354
1239.046	64.632280
1239.202	64.662205
1239.357	65.044894
1239.513	64.918815
1239.669	64.704239
1239.824	64.690238
1239.980	64.386654
1240.136	64.710468
1240.291	64.720579
1240.447	64.470835
1240.603	64.394933
1240.758	64.418955
1240.914	64.416077
1241.069	64.423490
1241.225	64.446127
1241.380	64.849434
1241.535	64.539462
1241.691	64.523323
1241.846	64.223488
1242.002	64.059171
1242.157	64.419770
1242.313	64.720244
1242.468	64.558070
1242.623	64.876143
1242.778	64.859900
1242.934	64.324946
1243.089	63.504625
1243.244	63.682063
1243.399	64.046974
1243.554	64.244760
1243.710	64.420578
1243.865	64.501296
1244.020	64.848200
1244.175	64.957633
1244.330	64.201644
1244.485	63.384123
1244.640	63.118296
1244.795	63.576520
1244.950	63.952095
1245.105	63.689199
1245.260	63.544414
1245.415	63.072947
1245.570	62.760299
1245.725	61.685944
1245.880	61.972001
1246.035	63.277517
1246.190	64.832127
1246.345	65.716283
1246.499	65.978347
1246.654	66.064417
1246.809	66.484124
1246.964	67.222643
1247.118	68.161808
1247.273	69.021315
1247.428	69.832688
1247.583	69.980855
1247.737	69.722517
1247.892	69.058078
1248.047	68.489387
1248.201	67.688809
1248.356	67.645044
1248.510	67.375866
1248.665	66.512372
1248.819	66.014588
1248.974	65.580405
1249.128	65.045399
1249.283	64.314242
1249.437	63.880515
1249.592	63.749454
1249.746	64.171105
1249.900	65.448039
1250.055	65.571194
1250.209	65.193801
1250.363	65.218476
1250.518	65.675547
1250.672	65.721144
1250.826	66.470204
1250.981	66.346677
1251.135	66.451047
1251.289	66.708146
1251.443	67.095949
1251.597	65.992804
1251.751	65.228333
1251.906	64.732637
1252.060	64.882172
1252.214	64.811327
1252.368	65.255009
1252.522	65.005659
1252.676	65.831546
1252.830	66.770097
1252.984	67.288020
1253.138	67.465473
1253.292	68.447720
1253.446	69.145068
1253.600	70.652600
1253.754	71.486804
1253.907	71.259201
1254.061	70.782167
1254.215	70.358157
1254.369	69.543412
1254.523	69.110561
1254.677	69.044582
1254.830	69.117521
1254.984	68.860574
1255.138	68.889400
1255.292	68.371666
1255.445	68.068605
1255.599	68.305756
1255.752	68.228737
1255.906	68.645052
1256.060	69.303781
1256.213	69.096769
1256.367	69.414639
1256.520	69.338751
1256.674	69.282003
1256.827	68.867073
1256.981	68.286633
1257.134	68.072370
1257.288	67.530928
1257.441	67.036294
1257.594	67.062394
1257.748	67.611739
1257.901	67.702058
1258.055	66.740707
1258.208	66.859525
1258.361	67.078924
1258.515	67.246498
1258.668	67.586500
1258.821	67.216532
1258.974	67.671747
1259.127	68.123419
1259.281	68.142067
1259.434	68.037652
1259.587	67.628508
1259.740	67.851206
1259.893	67.756367
1260.046	67.857508
1260.199	68.478360
1260.352	68.728859
1260.505	68.542170
1260.658	67.983148
1260.811	68.202807
1260.964	69.088676
1261.117	68.908245
1261.270	69.290708
1261.423	69.276278
1261.576	69.261135
1261.729	69.360201
1261.882	69.154070
1262.035	69.615442
1262.188	71.109343
1262.340	71.704416
1262.493	71.947321
1262.646	71.651843
1262.798	72.297011
1262.951	72.706525
1263.104	73.865538
1263.257	74.068672
1263.409	73.718661
1263.562	72.260228
1263.714	71.157577
1263.867	70.446689
1264.020	70.900955
1264.172	71.311955
1264.325	70.838529
1264.477	70.122700
1264.630	70.053773
1264.782	70.114934
1264.935	70.387724
1265.087	70.790663
1265.240	72.013123
1265.392	73.521753
1265.544	74.340463
1265.697	74.206045
1265.849	73.927193
1266.001	74.486356
1266.154	75.499999
1266.306	76.220779
1266.458	75.328846
1266.610	75.458856
1266.762	75.739264
1266.915	76.797649
1267.067	76.312214
1267.219	76.469619
1267.371	76.995727
1267.523	77.363356
1267.675	77.892701
1267.828	77.938168
1267.979	77.296240
1268.132	78.212685
1268.284	77.236435
1268.436	76.358617
1268.588	75.525234
1268.740	76.174814
1268.891	75.316031
1269.043	74.394138
1269.195	73.529665
1269.347	72.926404
1269.499	72.592413
1269.651	72.225259
1269.803	71.706975
1269.955	71.757302
1270.106	71.929252
1270.258	71.703875
1270.410	71.237570
1270.562	71.044733
1270.713	71.651596
1270.865	72.616719
1271.017	72.697376
1271.168	72.134127
1271.320	72.385697
1271.471	72.117741
1271.623	72.353615
1271.775	73.196969
1271.926	73.803616
1272.078	73.026123
1272.229	73.157967
1272.381	73.249903
1272.532	72.688049
1272.684	72.182109
1272.835	72.257460
1272.986	72.853146
1273.138	73.285171
1273.289	74.166340
1273.440	74.473624
1273.592	75.151200
1273.743	76.920655
1273.894	78.241103
1274.046	79.106347
1274.197	79.887808
1274.348	81.057222
1274.500	82.227136
1274.651	82.621747
1274.802	83.712556
>>>>>>>>>> END of Data <<<<<<<<<<
