Date	2025年07月03日木曜日 09時51分47秒
Spectrometers	SR401765
ダーク	使用
リファレンス	使用
積分時間[msec]	300
平均回数	1
ｽﾑｰｼﾞﾝｸﾞ	5
Electrical Dark	USE
ピクセル数	3648
計測モード	反射率
保存開始波長[nm]	598.495
保存終了波長[nm]	1274.802
保存ﾋﾟｯﾁ波長[nm]	全波長

>>>>>>>>>> Data Start <<<<<<<<<<<<
598.495	-9.086262
598.713	-9.086262
598.931	-9.086262
599.148	-9.086262
599.366	0.000000
599.584	0.000000
599.802	0.000000
600.020	0.000000
600.238	0.000000
600.455	-159.334682
600.673	-21.849930
600.891	73.165210
601.109	72.117121
601.326	72.163433
601.544	71.708634
601.762	71.207056
601.979	71.250718
602.197	71.768666
602.415	72.157026
602.632	71.956933
602.850	71.887906
603.067	71.931520
603.285	72.118839
603.502	72.314719
603.720	72.147235
603.938	72.324504
604.155	72.581575
604.372	72.455773
604.590	72.111867
604.807	71.662569
605.025	71.564827
605.242	71.782010
605.460	71.746181
605.677	71.424656
605.894	71.338604
606.112	71.589664
606.329	71.576255
606.546	71.545410
606.764	71.768817
606.981	72.041315
607.198	72.293293
607.415	72.293174
607.633	72.073543
607.850	72.093869
608.067	72.409693
608.284	72.452745
608.501	72.562396
608.718	72.558771
608.935	72.549385
609.153	72.613604
609.370	72.729708
609.587	72.476966
609.804	72.487137
610.021	72.606989
610.238	72.454650
610.455	72.232448
610.672	72.187388
610.889	72.025712
611.106	71.941412
611.323	72.025083
611.540	72.039998
611.756	71.945072
611.973	72.466954
612.190	73.053238
612.407	73.517839
612.624	73.973907
612.841	74.120820
613.057	74.113253
613.274	74.308901
613.491	74.561851
613.708	74.675271
613.925	74.920822
614.141	74.968702
614.358	74.899396
614.575	74.802192
614.791	74.671543
615.008	74.528090
615.225	74.723543
615.441	74.918777
615.658	74.801908
615.874	74.632322
616.091	74.573855
616.307	74.394655
616.524	74.562652
616.740	74.951745
616.957	75.113109
617.173	75.153109
617.390	75.239210
617.606	75.036915
617.823	74.917692
618.039	75.011997
618.256	75.570299
618.472	75.972741
618.688	76.271261
618.905	76.600341
619.121	76.562637
619.337	76.521762
619.554	76.597221
619.770	76.766752
619.986	77.106098
620.202	77.578999
620.419	77.898140
620.635	77.719888
620.851	77.577454
621.067	77.594641
621.283	77.575805
621.499	77.548951
621.716	77.645086
621.932	77.781106
622.148	77.991056
622.364	78.366034
622.580	78.572168
622.796	78.785029
623.012	79.101966
623.228	79.242445
623.444	79.412589
623.660	79.544308
623.876	79.637942
624.092	79.667314
624.308	79.728027
624.524	79.921854
624.740	79.887885
624.955	79.775315
625.171	79.788136
625.387	79.785692
625.603	79.901849
625.819	79.766281
626.034	79.421825
626.250	79.254704
626.466	79.397349
626.682	79.726704
626.897	79.935172
627.113	80.254569
627.329	80.218804
627.544	80.097488
627.760	80.323956
627.976	80.611982
628.191	80.894445
628.407	81.011756
628.623	81.127831
628.838	81.074879
629.054	80.824264
629.269	80.613428
629.485	80.447184
629.700	80.770308
629.916	81.054117
630.131	81.086537
630.347	81.102850
630.562	81.285498
630.777	81.731651
630.993	82.170468
631.208	82.482764
631.424	82.560679
631.639	82.458103
631.854	82.362620
632.070	82.231647
632.285	82.122950
632.500	82.052848
632.715	82.072927
632.931	82.041045
633.146	82.136079
633.361	82.398742
633.576	82.606010
633.791	82.726120
634.007	82.749353
634.222	82.761487
634.437	82.697492
634.652	82.534379
634.867	82.415156
635.082	82.476944
635.297	82.844232
635.512	83.023519
635.727	82.675233
635.942	82.285916
636.157	82.359107
636.372	82.780573
636.587	83.164580
636.802	83.449346
637.017	83.847231
637.232	84.280168
637.447	84.573730
637.662	84.473624
637.876	84.319565
638.091	84.006681
638.306	84.029150
638.521	84.309137
638.736	84.225432
638.951	83.921420
639.165	83.712244
639.380	83.303048
639.595	82.657499
639.809	81.917814
640.024	81.420662
640.239	81.145281
640.453	81.484167
640.668	81.517318
640.883	80.991560
641.097	80.888334
641.312	81.049987
641.526	81.240082
641.741	81.599476
641.955	82.020893
642.170	82.511618
642.384	82.913819
642.599	83.109907
642.813	83.099086
643.028	83.301604
643.242	83.577171
643.457	83.752493
643.671	84.076364
643.885	84.322950
644.100	84.606630
644.314	84.797398
644.528	84.866308
644.743	84.962752
644.957	85.144931
645.171	85.349933
645.386	85.392750
645.600	85.700081
645.814	85.662614
646.028	85.339126
646.242	85.060449
646.457	84.677174
646.671	84.169990
646.885	83.883940
647.099	83.869463
647.313	84.006984
647.527	84.233102
647.741	84.630892
647.955	84.776416
648.169	84.843261
648.383	84.699485
648.597	84.594179
648.811	84.650101
649.025	85.029106
649.239	85.214710
649.453	85.018545
649.667	84.734159
649.881	84.532878
650.095	84.308890
650.309	84.127019
650.523	83.968441
650.737	83.814192
650.950	83.661375
651.164	83.517748
651.378	83.463904
651.592	83.408638
651.805	83.369701
652.019	83.362488
652.233	82.930340
652.447	82.345371
652.660	81.834560
652.874	81.511180
653.088	81.465194
653.301	81.527084
653.515	81.846077
653.728	81.947099
653.942	81.955595
654.156	82.182317
654.369	82.398458
654.583	82.808969
654.796	83.388586
655.010	83.843026
655.223	84.068424
655.437	84.299814
655.650	84.588450
655.863	84.593152
656.077	84.345530
656.290	84.216110
656.504	84.109987
656.717	84.219787
656.930	84.258273
657.144	84.118002
657.357	84.126607
657.570	84.419801
657.783	84.783893
657.997	85.009244
658.210	84.996959
658.423	85.198999
658.636	85.544513
658.849	85.636609
659.063	85.368979
659.276	85.391798
659.489	85.644878
659.702	85.704198
659.915	85.638657
660.128	85.423340
660.341	85.425316
660.554	85.684075
660.767	85.840127
660.980	85.651339
661.193	85.506137
661.406	85.514504
661.619	85.445885
661.832	85.345946
662.045	85.478756
662.258	85.432336
662.471	85.389163
662.684	85.232787
662.897	85.078972
663.110	85.061040
663.322	85.540395
663.535	86.134766
663.748	86.313569
663.961	86.384342
664.174	86.390862
664.386	86.133275
664.599	86.158955
664.812	86.293493
665.024	86.311271
665.237	86.300460
665.450	86.330585
665.662	86.217586
665.875	85.968661
666.088	86.150221
666.300	86.378226
666.513	86.531370
666.725	86.734705
666.938	86.846942
667.150	86.724892
667.363	86.597525
667.575	86.565482
667.788	86.742539
668.000	86.828115
668.213	86.731800
668.425	86.414740
668.638	86.179037
668.850	86.081397
669.062	86.061843
669.275	86.216661
669.487	86.466829
669.699	86.535642
669.912	86.545587
670.124	86.438805
670.336	86.354700
670.548	86.519334
670.761	86.697921
670.973	86.706043
671.185	86.338253
671.397	85.862269
671.609	85.327190
671.822	85.066926
672.034	85.199303
672.246	85.316164
672.458	85.293567
672.670	84.960400
672.882	84.710714
673.094	84.847505
673.306	85.198501
673.518	85.914670
673.730	86.648824
673.942	87.169501
674.154	87.426051
674.366	87.344061
674.578	87.235717
674.790	87.075010
675.002	86.953500
675.214	86.649764
675.425	86.403632
675.637	86.075826
675.849	85.704028
676.061	85.513323
676.273	85.339447
676.484	85.293003
676.696	85.569859
676.908	85.907994
677.120	86.384301
677.331	87.119449
677.543	87.769095
677.755	87.857174
677.966	87.789097
678.178	87.778377
678.389	87.768329
678.601	87.948179
678.813	88.010973
679.024	87.612431
679.236	86.813945
679.447	86.033025
679.659	85.266753
679.870	84.576151
680.082	83.941240
680.293	83.546124
680.505	83.213607
680.716	82.845540
680.927	82.703740
681.139	82.937071
681.350	83.307598
681.562	83.645623
681.773	83.817404
681.984	83.914472
682.196	84.031862
682.407	84.636215
682.618	85.206782
682.829	85.268730
683.041	85.215694
683.252	84.966059
683.463	84.455797
683.674	83.977033
683.885	83.873182
684.097	83.968232
684.308	84.168575
684.519	84.587630
684.730	84.768323
684.941	84.910834
685.152	85.552310
685.363	86.252695
685.574	86.571141
685.785	86.567290
685.996	86.605251
686.207	86.881916
686.418	87.449181
686.629	88.065781
686.840	88.308650
687.051	88.247301
687.262	88.077719
687.473	87.754270
687.684	87.178451
687.894	86.796336
688.105	86.668186
688.316	86.522222
688.527	86.125600
688.738	85.326565
688.948	84.256730
689.159	83.376991
689.370	82.730551
689.580	82.343966
689.791	82.219749
690.002	82.428253
690.212	82.751850
690.423	82.987201
690.634	83.373043
690.844	83.801567
691.055	84.172863
691.266	84.558339
691.476	84.722059
691.687	84.843995
691.897	84.819034
692.108	84.701798
692.318	84.609979
692.529	84.378117
692.739	84.068876
692.949	83.635119
693.160	83.349110
693.370	83.505876
693.581	83.811993
693.791	84.093872
694.001	84.369884
694.212	84.645395
694.422	84.782531
694.632	84.734734
694.843	84.940726
695.053	85.469971
695.263	85.851834
695.473	86.090970
695.683	86.075024
695.894	85.913074
696.104	85.848938
696.314	85.858843
696.524	86.001853
696.734	86.163217
696.944	86.486288
697.154	86.595984
697.365	86.268196
697.575	86.216612
697.785	86.177238
697.995	86.140883
698.205	86.362397
698.415	86.861894
698.625	87.199717
698.834	87.032790
699.044	86.760753
699.254	86.523132
699.464	86.495350
699.674	86.508122
699.884	86.282825
700.094	86.118742
700.304	85.908111
700.513	85.378776
700.723	84.586324
700.933	84.049976
701.143	83.959377
701.353	83.811542
701.562	83.578644
701.772	83.099817
701.982	82.514568
702.191	81.868945
702.401	81.424071
702.611	81.174884
702.820	81.232905
703.030	81.367719
703.239	81.528161
703.449	81.763071
703.659	82.042714
703.868	82.147009
704.078	82.479473
704.287	83.047219
704.497	83.806616
704.706	84.010659
704.916	83.938574
705.125	83.965121
705.334	84.164631
705.544	83.827015
705.753	82.920513
705.962	82.238350
706.172	81.914981
706.381	81.475549
706.590	81.012279
706.800	80.652532
707.009	80.791192
707.218	81.030236
707.428	80.991058
707.637	80.927652
707.846	81.246244
708.055	81.767450
708.264	82.105532
708.474	82.247451
708.683	82.275228
708.892	82.172460
709.101	82.056643
709.310	81.866047
709.519	81.688524
709.728	81.532906
709.937	81.345829
710.146	81.214729
710.355	81.016846
710.564	80.667449
710.773	80.509515
710.982	81.020098
711.191	82.033623
711.400	82.840831
711.609	83.230963
711.818	83.467635
712.027	83.586322
712.235	83.568152
712.444	83.491701
712.653	83.485485
712.862	83.588947
713.071	83.545874
713.279	83.127096
713.488	82.544419
713.697	81.851471
713.906	81.203283
714.114	80.732256
714.323	80.232077
714.532	79.737145
714.740	79.140736
714.949	78.588482
715.157	78.141879
715.366	77.719363
715.575	77.479796
715.783	77.448904
715.992	77.660875
716.200	78.029343
716.409	78.291421
716.617	78.685229
716.826	79.104490
717.034	79.551485
717.242	80.013556
717.451	80.489157
717.659	80.888146
717.868	80.790269
718.076	80.154447
718.284	79.485581
718.493	78.915737
718.701	78.316806
718.909	77.842726
719.118	77.422771
719.326	77.054951
719.534	76.713892
719.742	76.405897
719.951	76.222062
720.159	76.182653
720.367	76.160935
720.575	76.040159
720.783	75.851563
720.991	75.871781
721.199	75.957596
721.408	76.059548
721.616	76.155479
721.824	76.271576
722.032	76.406265
722.240	76.443968
722.448	76.530268
722.656	76.778210
722.864	77.023749
723.072	76.995933
723.280	76.519365
723.487	75.757532
723.695	75.160725
723.903	74.680993
724.111	74.210907
724.319	73.927227
724.527	73.684918
724.735	73.359684
724.942	72.872472
725.150	72.387869
725.358	72.254188
725.566	72.498853
725.773	73.013655
725.981	73.325754
726.189	73.409962
726.396	73.465314
726.604	73.302192
726.812	73.212932
727.019	73.259336
727.227	73.441880
727.435	73.587385
727.642	73.591872
727.850	73.389561
728.057	72.859927
728.265	72.209452
728.472	71.671245
728.680	71.358599
728.887	70.901829
729.095	70.240321
729.302	69.678923
729.509	69.213938
729.717	68.977724
729.924	68.926792
730.132	68.906508
730.339	68.842634
730.546	68.850595
730.753	69.001423
730.961	69.008964
731.168	69.087538
731.375	69.417106
731.583	69.411249
731.790	69.183966
731.997	69.071959
732.204	68.812467
732.411	68.362489
732.618	68.133052
732.826	68.080801
733.033	67.875024
733.240	67.772874
733.447	67.736534
733.654	67.466353
733.861	67.322893
734.068	67.152825
734.275	66.621259
734.482	66.081865
734.689	65.897513
734.896	66.000721
735.103	66.233537
735.310	66.501570
735.517	66.399186
735.724	66.090032
735.931	65.835776
736.137	65.877259
736.344	66.147133
736.551	66.527501
736.758	66.747270
736.965	66.613711
737.171	65.886608
737.378	64.842393
737.585	63.826791
737.792	63.083301
737.998	62.624997
738.205	62.390854
738.412	61.885278
738.618	61.292306
738.825	60.491343
739.032	59.683906
739.238	58.979932
739.445	58.378613
739.651	57.910349
739.858	57.542798
740.064	57.260725
740.271	56.725905
740.477	55.819661
740.684	54.978793
740.890	54.256133
741.097	53.839852
741.303	53.830699
741.510	54.008311
741.716	54.253267
741.922	54.448847
742.129	54.444821
742.335	54.340604
742.541	54.268367
742.748	54.243182
742.954	54.315325
743.160	54.448834
743.366	54.470272
743.573	54.052486
743.779	53.595509
743.985	53.244364
744.191	52.781479
744.397	52.509058
744.604	52.381601
744.810	52.267132
745.016	52.184576
745.222	51.985401
745.428	51.674412
745.634	51.322805
745.840	50.961596
746.046	50.413635
746.252	49.883559
746.458	49.502990
746.664	49.128978
746.870	48.532654
747.076	47.975743
747.282	47.632911
747.488	47.306258
747.694	46.892834
747.900	46.414383
748.105	46.034421
748.311	45.813299
748.517	45.475996
748.723	45.178686
748.929	44.917606
749.134	44.867667
749.340	44.898087
749.546	44.676984
749.752	44.355194
749.957	44.153515
750.163	44.008605
750.369	43.969451
750.574	43.893250
750.780	43.733417
750.985	43.622609
751.191	43.416140
751.397	43.122979
751.602	42.811214
751.808	42.359958
752.013	41.734380
752.219	41.123787
752.424	40.666798
752.630	40.184995
752.835	39.510129
753.041	38.833599
753.246	38.077237
753.451	37.429431
753.657	36.828931
753.862	36.114187
754.067	35.753749
754.273	35.759671
754.478	35.655627
754.683	35.438581
754.889	35.109536
755.094	34.889583
755.299	34.833085
755.504	34.722773
755.710	34.502705
755.915	34.196391
756.120	33.966927
756.325	33.580314
756.530	33.094788
756.735	32.735831
756.940	32.427611
757.146	32.245624
757.351	32.173705
757.556	32.011589
757.761	31.743147
757.966	31.527270
758.171	31.283916
758.376	30.906381
758.581	30.559021
758.786	30.272202
758.990	30.016958
759.195	29.819029
759.400	29.459275
759.605	28.907746
759.810	28.421518
760.015	28.097091
760.220	27.618758
760.424	27.253668
760.629	27.056198
760.834	26.913202
761.039	26.696595
761.244	26.439393
761.448	26.215240
761.653	26.173375
761.858	26.118674
762.062	26.024913
762.267	25.874696
762.472	25.761964
762.676	25.587122
762.881	25.360629
763.085	25.088302
763.290	24.918765
763.494	24.571861
763.699	24.233822
763.903	23.794045
764.108	23.515698
764.312	23.196298
764.517	22.917516
764.721	22.797114
764.926	22.730671
765.130	22.776986
765.335	22.802036
765.539	22.586136
765.743	22.585014
765.948	22.587649
766.152	22.634150
766.356	22.583034
766.560	22.572465
766.765	22.545175
766.969	22.471234
767.173	22.375274
767.377	22.237621
767.582	22.041493
767.786	22.079375
767.990	22.054924
768.194	21.938204
768.398	21.831573
768.602	21.810301
768.806	21.802874
769.010	21.914524
769.215	21.896805
769.419	21.831980
769.623	21.847321
769.827	21.974166
770.031	22.048848
770.234	22.097196
770.438	22.180931
770.642	22.292508
770.846	22.426102
771.050	22.469414
771.254	22.485822
771.458	22.603245
771.662	22.678543
771.866	22.768262
772.069	22.893870
772.273	22.955986
772.477	22.946364
772.681	23.022436
772.885	23.156195
773.088	23.219073
773.292	23.264188
773.496	23.268503
773.699	23.341457
773.903	23.473167
774.107	23.427814
774.310	23.432528
774.514	23.510559
774.717	23.667070
774.921	23.763407
775.124	23.868095
775.328	24.101630
775.531	24.451504
775.735	24.820026
775.938	25.071781
776.142	25.412174
776.345	25.817469
776.549	26.191326
776.752	26.585321
776.956	27.074955
777.159	27.442994
777.362	27.765325
777.566	28.046381
777.769	28.205296
777.972	28.430109
778.176	28.823077
778.379	29.262924
778.582	29.550911
778.785	29.709359
778.989	29.898652
779.192	29.932946
779.395	30.079722
779.598	30.151783
779.801	30.208958
780.004	30.375885
780.207	30.331802
780.411	30.197461
780.614	29.954959
780.817	30.005830
781.020	30.200058
781.223	30.303221
781.426	30.610448
781.629	30.972434
781.832	31.339317
782.035	31.701409
782.238	32.084277
782.440	32.637533
782.643	33.166309
782.846	33.739174
783.049	34.099366
783.252	34.443177
783.455	34.973721
783.658	35.396870
783.860	35.676961
784.063	36.145414
784.266	36.721820
784.469	37.100158
784.671	37.330847
784.874	37.526841
785.077	37.701395
785.279	38.027139
785.482	38.406919
785.685	38.572722
785.887	38.654521
786.090	38.857383
786.293	38.881870
786.495	38.852524
786.698	39.210725
786.900	39.722896
787.103	40.267237
787.305	40.816948
787.508	41.263147
787.710	41.602200
787.913	41.940800
788.115	42.293957
788.317	42.677799
788.520	43.191174
788.722	43.615721
788.924	43.766080
789.127	43.792419
789.329	43.801182
789.531	43.912153
789.734	43.974097
789.936	43.910322
790.138	44.010272
790.340	44.183919
790.543	44.271765
790.745	44.330878
790.947	44.389744
791.149	44.544362
791.351	44.874029
791.553	45.207617
791.756	45.514091
791.958	45.977650
792.160	46.617671
792.362	47.177705
792.564	47.739999
792.766	48.407517
792.968	48.803065
793.170	48.810388
793.372	48.721097
793.574	48.499335
793.776	48.222364
793.978	47.983432
794.180	47.899294
794.381	47.937574
794.583	48.122731
794.785	48.298459
794.987	48.291423
795.189	48.466059
795.391	49.061453
795.592	49.789519
795.794	50.513472
795.996	51.404568
796.198	52.269981
796.399	52.877481
796.601	53.180199
796.803	53.140757
797.004	53.136806
797.206	53.128232
797.407	53.053268
797.609	52.943526
797.811	52.756471
798.012	52.594612
798.214	52.215202
798.415	51.633480
798.617	51.255952
798.818	51.124860
799.020	51.160169
799.221	51.105695
799.423	50.983559
799.624	51.063133
799.826	51.226170
800.027	51.481619
800.228	51.927213
800.430	52.630924
800.631	53.421520
800.832	53.993785
801.034	54.410236
801.235	54.818463
801.436	55.406769
801.637	56.464944
801.839	57.451632
802.040	58.136547
802.241	58.683792
802.442	58.967684
802.643	59.181308
802.844	59.463004
803.046	59.697497
803.247	59.845890
803.448	60.032308
803.649	60.078375
803.850	59.735853
804.051	59.384318
804.252	59.357950
804.453	59.327726
804.654	59.213731
804.855	58.795139
805.056	58.370041
805.257	58.169811
805.458	58.045262
805.659	57.729501
805.859	57.350404
806.060	57.199147
806.261	57.151434
806.462	57.109451
806.663	57.281103
806.864	57.718923
807.064	58.526243
807.265	59.257089
807.466	59.837779
807.667	60.625145
807.867	61.378377
808.068	61.957070
808.269	62.507587
808.469	63.088602
808.670	63.715145
808.870	64.216180
809.071	64.547442
809.272	64.717577
809.472	64.896979
809.673	64.935788
809.873	64.700472
810.074	64.743505
810.274	65.268169
810.475	65.516380
810.675	65.538953
810.876	65.549500
811.076	65.455297
811.276	65.441721
811.477	65.568785
811.677	65.729958
811.878	65.994052
812.078	66.216359
812.278	66.357571
812.479	66.272048
812.679	66.435709
812.879	66.578719
813.079	66.355679
813.280	65.983004
813.480	65.521514
813.680	64.987539
813.880	64.553510
814.080	64.294660
814.280	64.270992
814.480	64.496452
814.681	64.674521
814.881	64.594728
815.081	64.672048
815.281	65.119097
815.481	65.672444
815.681	66.564530
815.881	67.451692
816.081	68.102355
816.281	68.517621
816.481	68.821585
816.681	68.850761
816.880	68.904025
817.080	69.060894
817.280	69.219180
817.480	69.339942
817.680	69.515365
817.880	69.576779
818.080	69.389825
818.279	69.054977
818.479	68.858298
818.679	68.826683
818.879	68.873843
819.078	68.863159
819.278	69.006601
819.478	69.195990
819.677	69.362644
819.877	69.641146
820.077	69.703021
820.276	70.060921
820.476	70.464281
820.675	70.815032
820.875	70.968114
821.074	71.026142
821.274	71.240722
821.473	71.286918
821.673	71.105224
821.872	71.165746
822.072	71.393925
822.271	71.617321
822.471	71.859136
822.670	72.433742
822.869	73.168286
823.069	73.827382
823.268	74.390836
823.467	74.773757
823.667	74.996943
823.866	75.218877
824.065	75.170729
824.265	74.787012
824.464	74.278583
824.663	73.884051
824.862	73.545701
825.061	73.235082
825.261	72.845307
825.460	72.355085
825.659	71.817560
825.858	71.750035
826.057	72.097786
826.256	72.704764
826.455	73.438163
826.654	74.223177
826.853	74.678342
827.052	74.772926
827.251	74.614698
827.450	74.451987
827.649	74.358719
827.848	74.623132
828.047	74.683197
828.246	74.381526
828.445	73.669914
828.644	73.026936
828.843	72.767284
829.041	72.684816
829.240	72.719017
829.439	72.987586
829.638	73.339971
829.836	73.619969
830.035	73.923030
830.234	74.154302
830.433	74.559372
830.631	75.412783
830.830	76.309757
831.029	76.631798
831.227	76.867755
831.426	77.459637
831.624	77.647634
831.823	77.717342
832.022	77.727814
832.220	77.510187
832.419	77.445258
832.617	77.381527
832.816	77.053726
833.014	76.696005
833.213	76.778515
833.411	76.953831
833.609	76.954212
833.808	77.147205
834.006	77.269984
834.205	77.423616
834.403	77.674352
834.601	77.652022
834.800	77.384828
834.998	77.266466
835.196	76.817045
835.394	76.228842
835.593	75.520381
835.791	74.549878
835.989	73.499939
836.187	72.667965
836.385	72.262710
836.584	71.928940
836.782	71.973829
836.980	72.323556
837.178	72.655052
837.376	73.096835
837.574	73.177867
837.772	73.382621
837.970	73.802821
838.168	74.261707
838.366	74.818898
838.564	75.331633
838.762	75.704666
838.960	75.811337
839.158	75.552633
839.356	75.195045
839.554	74.864688
839.752	74.919097
839.949	75.158286
840.147	75.451175
840.345	75.747319
840.543	75.653264
840.741	75.158630
840.938	74.545769
841.136	73.795515
841.334	73.277500
841.532	72.805717
841.729	72.545622
841.927	72.517072
842.125	72.480371
842.322	72.233972
842.520	72.028923
842.718	72.634050
842.915	73.582922
843.113	74.583284
843.310	75.729616
843.508	76.549012
843.705	77.063751
843.903	77.517306
844.100	77.701790
844.298	77.655486
844.495	77.735576
844.693	77.896416
844.890	77.503713
845.087	76.920992
845.285	76.347183
845.482	75.925537
845.679	75.988707
845.877	76.426937
846.074	76.963549
846.271	77.863280
846.469	78.765935
846.666	79.316627
846.863	79.955880
847.060	80.626131
847.257	81.229179
847.455	81.634807
847.652	81.648996
847.849	81.568416
848.046	81.392486
848.243	81.232916
848.440	80.739356
848.637	79.695037
848.834	78.710992
849.031	77.722592
849.228	76.739674
849.425	75.965126
849.622	75.489301
849.819	75.459900
850.016	75.549800
850.213	75.476141
850.410	75.020345
850.607	74.585872
850.804	74.879160
851.001	75.498101
851.198	75.985726
851.394	76.427139
851.591	76.752989
851.788	77.041931
851.985	77.094801
852.181	76.882986
852.378	76.359881
852.575	76.138702
852.772	75.878054
852.968	75.464166
853.165	75.014017
853.362	74.774784
853.558	74.881259
853.755	75.481085
853.951	76.155552
854.148	76.871796
854.345	77.277685
854.541	77.722136
854.738	78.193738
854.934	78.863976
855.131	79.863142
855.327	80.827515
855.523	81.382569
855.720	81.209514
855.916	80.533843
856.113	79.687537
856.309	78.836649
856.505	78.559105
856.702	78.949506
856.898	79.177922
857.094	79.186435
857.291	79.074080
857.487	79.084746
857.683	79.465548
857.879	80.146168
858.076	80.736503
858.272	81.443979
858.468	82.381036
858.664	83.437607
858.860	84.024192
859.056	84.322645
859.253	84.878054
859.449	85.267467
859.645	85.652224
859.841	85.926116
860.037	86.134252
860.233	86.276888
860.429	86.524943
860.625	86.507107
860.821	85.998513
861.017	85.586029
861.213	85.638043
861.409	85.589775
861.604	85.264823
861.800	84.604703
861.996	83.414824
862.192	82.575176
862.388	81.917966
862.584	81.173200
862.779	80.649575
862.975	80.358353
863.171	80.061564
863.367	79.980458
863.562	79.630957
863.758	79.356761
863.954	78.988103
864.149	79.223346
864.345	79.380988
864.541	79.479539
864.736	79.847589
864.932	80.313128
865.127	80.510005
865.323	80.922394
865.518	81.203719
865.714	81.473386
865.910	81.746078
866.105	82.195437
866.300	82.405371
866.496	82.801720
866.691	83.766139
866.887	84.740203
867.082	85.538732
867.277	86.199240
867.473	86.654490
867.668	86.888230
867.864	86.676318
868.059	86.376233
868.254	86.293221
868.449	86.437909
868.645	86.473927
868.840	85.870209
869.035	85.088878
869.230	84.874442
869.425	84.774840
869.621	84.358560
869.816	83.717397
870.011	83.447021
870.206	83.525998
870.401	83.954121
870.596	84.411951
870.791	84.531838
870.986	84.795671
871.181	84.974370
871.376	84.188125
871.571	83.337207
871.766	82.683640
871.961	82.481170
872.156	82.597158
872.351	82.825338
872.546	82.716258
872.741	82.353664
872.936	82.095009
873.130	81.990756
873.325	81.841799
873.520	82.265549
873.715	82.823156
873.910	83.094071
874.104	82.933818
874.299	83.055379
874.494	83.248535
874.688	83.602641
874.883	84.030839
875.078	84.626565
875.272	85.041475
875.467	85.146065
875.662	84.987515
875.856	85.172475
876.051	85.940792
876.245	86.716156
876.440	87.274412
876.634	87.301311
876.829	87.049061
877.023	86.735349
877.218	86.147091
877.412	85.289112
877.607	84.676767
877.801	83.758813
877.995	82.547181
878.190	81.271454
878.384	80.639412
878.578	79.916583
878.773	79.282329
878.967	78.728807
879.161	78.368197
879.356	78.344637
879.550	78.793108
879.744	79.116283
879.938	79.638920
880.133	80.435192
880.327	81.210908
880.521	81.771729
880.715	82.306097
880.909	83.034141
881.103	83.877954
881.297	84.636034
881.491	84.997252
881.685	85.135963
881.880	85.369579
882.073	85.894328
882.267	86.160574
882.461	86.416553
882.655	86.844003
882.849	87.585877
883.043	88.145064
883.237	87.957366
883.431	87.754220
883.625	87.676637
883.819	87.689087
884.013	88.068730
884.206	88.144819
884.400	88.259465
884.594	88.197082
884.788	88.026405
884.982	87.668740
885.175	87.246160
885.369	87.144713
885.563	86.556866
885.756	85.810889
885.950	85.049653
886.144	83.953160
886.337	83.425774
886.531	83.119421
886.724	82.816814
886.918	82.680675
887.112	82.395152
887.305	82.496535
887.499	82.815828
887.692	83.550504
887.885	84.398910
888.079	84.811569
888.272	85.367634
888.466	85.657556
888.659	85.432383
888.853	85.160328
889.046	84.570878
889.239	84.075675
889.433	83.648259
889.626	82.997734
889.819	81.934208
890.013	80.898041
890.206	80.448587
890.399	80.201685
890.592	79.754292
890.785	80.162262
890.979	81.029639
891.172	81.993992
891.365	82.205009
891.558	82.045877
891.751	82.018739
891.944	82.443708
892.137	82.938593
892.330	83.364055
892.524	83.529298
892.717	83.998234
892.910	83.714811
893.103	83.153108
893.296	82.394314
893.488	82.046346
893.681	81.672364
893.874	81.741729
894.067	82.006669
894.260	82.684251
894.453	83.320541
894.646	83.787498
894.839	83.951759
895.031	84.334323
895.224	84.802105
895.417	85.274054
895.610	85.839005
895.802	86.261567
895.995	86.435323
896.188	85.959019
896.381	85.044051
896.573	84.741990
896.766	85.177743
896.958	85.583047
897.151	85.708052
897.344	85.761577
897.536	85.643337
897.729	85.399339
897.921	85.461761
898.114	85.387916
898.306	85.913499
898.499	86.410322
898.691	86.443604
898.884	85.949895
899.076	85.830922
899.269	85.576722
899.461	85.152228
899.653	85.196291
899.846	85.551452
900.038	85.908329
900.230	85.930130
900.423	85.662361
900.615	85.614091
900.807	85.423447
901.000	85.468673
901.192	85.540763
901.384	85.971434
901.576	86.603731
901.768	87.184497
901.961	87.639895
902.153	87.978911
902.345	88.305211
902.537	88.585549
902.729	88.963294
902.921	89.148831
903.113	89.031550
903.305	89.373769
903.497	89.713816
903.689	90.184369
903.881	90.509880
904.073	90.773463
904.265	91.122846
904.457	92.086513
904.649	93.263007
904.841	94.088684
905.033	95.090199
905.224	95.930815
905.416	95.860671
905.608	95.247497
905.800	94.360715
905.992	93.637793
906.183	93.117637
906.375	92.416156
906.567	91.599419
906.759	90.807636
906.950	90.313186
907.142	89.811477
907.334	89.431194
907.525	89.074325
907.717	88.863408
907.909	88.789836
908.100	88.147742
908.292	87.537153
908.483	87.261527
908.675	86.826044
908.866	86.510314
909.058	86.482669
909.249	86.166320
909.441	86.022746
909.632	86.233593
909.824	86.428164
910.015	86.486442
910.206	87.047336
910.398	87.337511
910.589	87.610435
910.780	88.123644
910.972	88.259665
911.163	87.783771
911.354	87.385801
911.546	87.106416
911.737	86.859390
911.928	86.780888
912.119	86.617221
912.310	86.447328
912.502	86.404885
912.693	86.331432
912.884	85.617391
913.075	85.079467
913.266	85.110838
913.457	85.377496
913.648	85.478444
913.839	85.288954
914.030	84.960269
914.221	85.043881
914.412	85.540213
914.603	86.604096
914.794	87.161140
914.985	88.082487
915.176	88.980332
915.367	89.492818
915.558	90.076398
915.749	90.663065
915.940	91.373215
916.130	92.514677
916.321	93.704957
916.512	94.016722
916.703	93.605070
916.893	93.611448
917.084	93.666592
917.275	93.699560
917.466	93.672199
917.656	93.553806
917.847	93.496527
918.038	92.849282
918.228	92.100630
918.419	91.317482
918.609	90.549415
918.800	90.017891
918.990	89.860574
919.181	89.844963
919.372	89.599533
919.562	89.441998
919.753	89.819083
919.943	90.052361
920.133	90.556724
920.324	91.138490
920.514	91.248648
920.705	91.624162
920.895	91.733848
921.085	91.275962
921.276	91.045990
921.466	91.140521
921.656	91.124995
921.847	90.324162
922.037	89.490601
922.227	88.957802
922.417	88.330099
922.608	87.946522
922.798	87.509836
922.988	87.733997
923.178	88.263240
923.368	88.410820
923.558	88.597795
923.748	88.783606
923.939	89.026293
924.129	89.213158
924.319	88.806360
924.509	88.952817
924.699	89.155663
924.889	89.661367
925.079	89.553993
925.269	89.071530
925.459	89.031226
925.648	88.879961
925.838	88.989500
926.028	89.263898
926.218	89.415639
926.408	90.068750
926.598	90.273497
926.788	90.583100
926.977	90.374768
927.167	90.398518
927.357	90.790001
927.547	91.152487
927.736	91.672524
927.926	91.255520
928.116	90.734964
928.305	90.995412
928.495	91.044807
928.685	91.144167
928.874	91.201320
929.064	91.124828
929.253	91.300608
929.443	91.281980
929.633	91.331600
929.822	90.521280
930.012	90.150583
930.201	90.329017
930.391	89.799704
930.580	89.348495
930.769	88.959252
930.959	88.594448
931.148	88.975637
931.338	89.287543
931.527	89.399482
931.716	88.808545
931.906	88.850415
932.095	89.093035
932.284	88.782371
932.474	89.083468
932.663	90.073587
932.852	90.471006
933.041	90.368306
933.230	90.416781
933.420	90.154889
933.609	89.834053
933.798	89.698091
933.987	89.471730
934.176	89.268152
934.365	89.311344
934.554	89.126974
934.743	88.483683
934.932	88.063792
935.121	88.249920
935.310	87.865379
935.499	87.580562
935.688	88.227394
935.877	89.258979
936.066	90.537955
936.255	91.897372
936.444	92.930510
936.633	93.580315
936.822	94.052827
937.010	94.658561
937.199	94.598380
937.388	95.105722
937.577	95.540711
937.766	94.612225
937.954	93.477133
938.143	92.724313
938.332	91.675984
938.520	90.666750
938.709	90.032053
938.898	89.208136
939.086	88.700343
939.275	88.292063
939.464	87.154453
939.652	86.344497
939.841	86.369102
940.029	86.517248
940.218	86.750049
940.406	86.944047
940.595	87.097059
940.783	87.049475
940.972	87.224111
941.160	86.965307
941.349	86.921295
941.537	87.395219
941.725	88.066011
941.914	87.956706
942.102	87.276611
942.290	86.693470
942.479	86.612368
942.667	86.993400
942.855	87.010787
943.043	86.934244
943.232	86.959743
943.420	87.501202
943.608	88.062867
943.796	87.707228
943.984	87.695355
944.172	87.682479
944.361	87.309924
944.549	86.659253
944.737	85.721645
944.925	85.380778
945.113	85.454668
945.301	86.106832
945.489	86.315240
945.677	85.757775
945.865	85.456119
946.053	85.437133
946.241	85.850426
946.429	86.155491
946.617	86.832255
946.805	87.416584
946.992	87.958004
947.180	88.077653
947.368	87.903436
947.556	87.647311
947.744	87.810064
947.931	88.491251
948.119	88.651770
948.307	88.811072
948.495	89.205905
948.682	89.146358
948.870	89.504823
949.058	90.123154
949.245	90.490754
949.433	90.816170
949.621	91.121273
949.808	91.575966
949.996	91.478545
950.183	92.376945
950.371	92.980256
950.558	92.776221
950.746	93.308188
950.933	93.520645
951.121	93.358808
951.308	94.009066
951.496	94.249116
951.683	94.243397
951.870	94.105020
952.058	94.228135
952.245	93.738998
952.433	93.324225
952.620	93.362096
952.807	92.950300
952.994	92.575273
953.182	91.930761
953.369	90.681155
953.556	89.353983
953.743	87.718370
953.931	86.383547
954.118	85.753478
954.305	85.172377
954.492	84.762017
954.679	84.201721
954.866	83.563857
955.053	82.769759
955.240	82.292695
955.427	82.558059
955.615	83.126914
955.802	84.299395
955.989	85.260535
956.175	85.428833
956.362	85.979362
956.549	86.922816
956.736	88.071953
956.923	88.538392
957.110	88.349845
957.297	88.086508
957.484	87.474105
957.671	86.358123
957.857	85.132441
958.044	84.667146
958.231	84.366811
958.418	83.749838
958.604	83.284526
958.791	83.090119
958.978	83.011322
959.165	83.155248
959.351	83.437213
959.538	83.551116
959.724	84.249237
959.911	85.036934
960.098	85.188657
960.284	85.742826
960.471	86.173684
960.657	86.223701
960.844	86.249424
961.030	86.626364
961.217	88.059923
961.403	89.188072
961.590	89.860804
961.776	90.709940
961.963	91.499195
962.149	92.449934
962.335	93.465771
962.522	94.324193
962.708	95.366767
962.894	96.502701
963.081	97.708297
963.267	98.577904
963.453	99.230508
963.639	99.918915
963.826	99.807021
964.012	99.447802
964.198	98.766131
964.384	97.253649
964.570	96.231727
964.756	94.676134
964.943	93.206231
965.129	92.056633
965.315	90.979101
965.501	90.300775
965.687	89.832205
965.873	89.375845
966.059	89.375806
966.245	89.468649
966.431	89.019631
966.617	89.258598
966.803	89.635655
966.989	89.736988
967.174	89.881282
967.360	89.653588
967.546	89.768254
967.732	90.000380
967.918	90.269225
968.104	90.375739
968.289	90.621947
968.475	91.658822
968.661	91.727402
968.847	91.957851
969.032	92.587388
969.218	93.060022
969.404	94.031280
969.589	94.383800
969.775	94.318969
969.961	94.484235
970.146	95.264427
970.332	95.914639
970.517	96.851386
970.703	97.649962
970.888	98.218883
971.074	97.902722
971.260	97.372175
971.445	96.101837
971.630	95.668445
971.816	95.843171
972.001	95.449572
972.187	94.458615
972.372	93.348796
972.557	91.963192
972.743	91.221745
972.928	91.237589
973.113	90.963306
973.299	90.902563
973.484	91.704891
973.669	92.359409
973.854	92.320579
974.040	92.787586
974.225	92.750625
974.410	93.251633
974.595	93.165076
974.780	92.566313
974.965	91.497367
975.151	91.555280
975.336	91.650136
975.521	90.848540
975.706	90.394585
975.891	90.093176
976.076	90.321515
976.261	90.870972
976.446	90.746362
976.631	91.470549
976.816	91.991371
977.001	92.348253
977.186	92.608323
977.370	92.002748
977.555	92.307528
977.740	92.288130
977.925	92.723306
978.110	92.084182
978.295	91.983246
978.479	91.707619
978.664	91.839862
978.849	92.403283
979.034	92.721396
979.218	92.617224
979.403	93.875892
979.588	93.995642
979.772	93.134837
979.957	92.704663
980.141	92.823117
980.326	92.372735
980.511	92.095277
980.695	90.937831
980.880	89.302982
981.064	88.344922
981.249	87.275289
981.433	85.823395
981.618	84.699634
981.802	84.515470
981.987	83.773240
982.171	83.220078
982.355	83.379231
982.540	83.509182
982.724	84.373499
982.908	85.993908
983.093	87.577538
983.277	89.369456
983.461	91.027971
983.646	92.648478
983.830	94.125319
984.014	95.374659
984.198	96.245674
984.382	95.912799
984.567	96.704199
984.751	96.848240
984.935	96.319668
985.119	94.789116
985.303	93.420793
985.487	92.395980
985.671	91.468468
985.855	90.714980
986.039	90.628950
986.223	90.921613
986.407	91.801714
986.591	92.049255
986.775	92.941543
986.959	93.444361
987.143	93.552143
987.327	94.378901
987.511	94.217424
987.695	94.221518
987.879	93.646019
988.062	92.609384
988.246	91.880796
988.430	91.948435
988.614	91.268641
988.797	89.205289
988.981	88.263415
989.165	88.801625
989.349	88.198632
989.532	88.429989
989.716	88.322824
989.900	88.979849
990.083	90.064543
990.267	90.794359
990.450	91.742483
990.634	92.700669
990.817	94.370555
991.001	95.550007
991.184	95.431877
991.368	96.316359
991.551	97.032920
991.735	98.412008
991.918	99.070128
992.102	99.427967
992.285	99.999662
992.469	99.371483
992.652	98.734570
992.835	98.135365
993.019	97.968225
993.202	99.610666
993.385	99.423628
993.568	98.786543
993.752	98.841219
993.935	98.203144
994.118	97.666925
994.301	96.696288
994.484	95.951680
994.668	95.807399
994.851	95.895505
995.034	95.560469
995.217	93.769253
995.400	93.091327
995.583	92.672140
995.766	92.341851
995.949	92.603992
996.132	93.383440
996.315	93.858545
996.498	94.274304
996.681	95.185802
996.864	95.307299
997.047	95.641233
997.230	95.686926
997.413	95.524982
997.596	95.627805
997.778	94.671344
997.961	94.498730
998.144	93.812181
998.327	93.088444
998.510	92.667088
998.692	91.766739
998.875	91.533736
999.058	91.157285
999.241	91.067397
999.423	91.422944
999.606	91.536625
999.789	91.726695
999.971	91.020462
1000.154	90.146808
1000.336	90.104781
1000.519	89.965996
1000.701	89.459200
1000.884	90.191634
1001.067	90.415486
1001.249	90.418728
1001.431	89.954370
1001.614	89.973049
1001.796	90.076031
1001.979	90.445897
1002.161	91.461103
1002.344	92.221123
1002.526	92.689743
1002.708	92.767032
1002.891	92.454795
1003.073	93.109957
1003.255	94.228348
1003.438	95.693016
1003.620	96.523788
1003.802	97.746558
1003.984	99.304421
1004.166	98.963443
1004.349	99.596716
1004.531	99.887963
1004.713	100.230284
1004.895	100.113069
1005.077	98.597063
1005.259	97.771670
1005.441	96.998101
1005.623	97.292897
1005.805	97.600372
1005.987	96.606440
1006.169	96.956241
1006.351	96.308910
1006.533	95.473223
1006.715	95.277310
1006.897	95.131789
1007.079	96.427770
1007.261	97.191181
1007.443	97.219730
1007.625	96.621849
1007.806	94.965994
1007.988	94.500604
1008.170	95.262083
1008.352	95.063756
1008.534	95.815839
1008.715	97.497786
1008.897	98.222976
1009.079	97.763333
1009.260	97.541557
1009.442	98.313580
1009.624	98.026625
1009.805	97.748025
1009.987	97.821924
1010.169	96.869117
1010.350	97.740283
1010.532	97.179355
1010.713	95.403451
1010.895	95.082222
1011.076	95.225958
1011.258	95.070927
1011.439	95.305387
1011.621	96.203497
1011.802	96.486378
1011.983	96.819322
1012.165	97.313342
1012.346	96.829312
1012.527	96.850540
1012.709	97.183928
1012.890	96.720624
1013.071	96.840194
1013.253	96.993151
1013.434	96.210513
1013.615	95.623899
1013.796	95.823159
1013.978	95.735088
1014.159	95.230927
1014.340	94.038620
1014.521	93.737816
1014.702	94.198896
1014.883	94.391430
1015.064	93.125098
1015.245	92.409496
1015.427	92.566732
1015.608	92.383936
1015.789	92.533641
1015.970	91.353513
1016.151	91.621374
1016.332	92.401154
1016.512	92.876643
1016.693	92.841580
1016.874	92.843742
1017.055	94.509498
1017.236	95.319017
1017.417	95.559757
1017.598	95.769310
1017.779	96.328296
1017.959	97.491108
1018.140	97.477301
1018.321	98.300682
1018.502	98.911095
1018.682	98.654676
1018.863	98.759543
1019.044	97.959859
1019.224	97.764618
1019.405	97.545647
1019.586	97.384025
1019.766	96.953740
1019.947	97.106169
1020.127	96.781281
1020.308	95.473196
1020.488	94.808752
1020.669	94.849406
1020.849	94.940414
1021.030	95.545781
1021.210	96.243272
1021.391	96.718564
1021.571	97.550781
1021.752	97.147083
1021.932	96.328465
1022.112	96.413887
1022.293	97.322463
1022.473	97.113756
1022.653	96.822236
1022.834	96.692399
1023.014	95.796525
1023.194	94.270410
1023.374	93.993770
1023.555	93.632352
1023.735	93.398730
1023.915	93.598681
1024.095	92.727453
1024.275	92.165856
1024.455	92.759706
1024.635	93.373331
1024.816	94.163279
1024.996	94.609185
1025.176	94.777863
1025.356	93.627545
1025.536	92.780384
1025.716	92.230058
1025.896	91.697869
1026.076	92.257115
1026.256	91.942141
1026.436	91.551401
1026.615	91.304810
1026.795	90.264569
1026.975	90.601051
1027.155	91.522230
1027.335	91.488932
1027.515	90.988096
1027.695	91.499084
1027.874	93.367479
1028.054	93.749150
1028.234	95.100566
1028.413	95.261202
1028.593	95.950041
1028.773	96.822988
1028.953	95.795038
1029.132	95.353040
1029.312	97.019060
1029.491	98.286631
1029.671	99.327034
1029.851	98.349716
1030.030	98.535452
1030.210	97.949689
1030.389	98.387559
1030.569	97.905469
1030.748	97.412505
1030.928	97.757712
1031.107	98.184651
1031.286	97.216733
1031.466	97.946524
1031.645	96.357538
1031.825	95.541710
1032.004	95.783565
1032.183	96.376974
1032.363	96.534413
1032.542	96.673482
1032.721	96.858731
1032.900	96.850656
1033.080	96.144058
1033.259	95.872780
1033.438	94.744988
1033.617	96.281147
1033.796	98.254443
1033.975	98.258667
1034.155	98.013856
1034.334	98.062219
1034.513	98.795787
1034.692	98.701538
1034.871	98.260299
1035.050	97.488822
1035.229	96.977998
1035.408	95.651089
1035.587	96.175175
1035.766	95.123623
1035.945	94.844064
1036.124	93.857954
1036.303	93.086146
1036.481	92.027708
1036.660	92.267679
1036.839	94.112919
1037.018	95.467897
1037.197	95.377591
1037.376	97.055763
1037.554	96.786502
1037.733	97.574036
1037.912	98.028085
1038.091	99.393090
1038.269	99.664475
1038.448	98.547969
1038.627	97.790240
1038.805	95.275851
1038.984	94.753441
1039.162	94.945445
1039.341	94.710601
1039.520	93.672946
1039.698	92.935886
1039.877	92.832433
1040.055	92.935386
1040.234	93.287371
1040.412	94.603552
1040.591	95.207790
1040.769	96.519071
1040.947	96.165845
1041.126	96.309437
1041.304	96.411719
1041.483	96.062248
1041.661	95.660758
1041.839	95.041073
1042.017	92.404472
1042.196	91.418106
1042.374	92.067328
1042.552	92.201940
1042.730	91.694642
1042.909	92.271451
1043.087	93.725987
1043.265	93.959451
1043.443	94.826265
1043.621	94.813088
1043.799	94.163017
1043.978	95.291223
1044.156	95.881444
1044.334	95.805495
1044.512	95.413227
1044.690	94.955912
1044.868	94.434925
1045.046	93.596696
1045.224	92.789037
1045.402	92.641388
1045.580	93.670873
1045.758	94.708032
1045.935	95.425985
1046.113	95.489961
1046.291	94.278377
1046.469	93.471590
1046.647	93.653187
1046.825	93.744421
1047.002	93.747642
1047.180	94.329299
1047.358	94.823247
1047.536	94.147320
1047.713	94.517250
1047.891	95.201772
1048.069	95.946128
1048.246	96.662523
1048.424	97.147000
1048.602	97.708484
1048.779	98.141470
1048.957	98.145981
1049.134	98.039803
1049.312	97.846736
1049.489	96.718881
1049.667	95.710314
1049.844	94.790410
1050.022	94.112120
1050.199	94.385869
1050.377	94.122756
1050.554	93.592298
1050.731	93.430023
1050.909	92.633071
1051.086	91.856438
1051.263	91.637242
1051.441	93.615956
1051.618	94.158904
1051.795	94.487855
1051.973	94.245961
1052.150	94.122214
1052.327	94.875108
1052.504	95.623650
1052.681	95.553972
1052.859	96.657126
1053.036	97.766921
1053.213	98.152984
1053.390	97.415873
1053.567	97.721920
1053.744	97.371877
1053.921	96.994392
1054.098	96.641367
1054.275	96.669237
1054.452	96.255630
1054.629	95.620786
1054.806	94.517959
1054.983	94.137067
1055.160	94.233855
1055.337	94.927800
1055.514	94.269032
1055.691	93.849155
1055.868	94.211727
1056.044	94.161012
1056.221	92.970353
1056.398	92.746119
1056.575	93.727156
1056.751	94.913512
1056.928	95.104915
1057.105	95.211726
1057.282	95.318991
1057.458	96.391696
1057.635	96.992112
1057.812	96.943353
1057.988	96.241021
1058.165	97.191458
1058.341	97.351203
1058.518	96.671071
1058.694	95.803842
1058.871	95.666052
1059.047	95.552982
1059.224	95.304148
1059.401	94.442975
1059.577	94.296565
1059.753	94.280436
1059.930	94.880475
1060.106	95.023195
1060.282	94.753855
1060.459	94.646763
1060.635	94.210444
1060.812	94.086198
1060.988	93.403365
1061.164	92.766424
1061.340	93.054436
1061.517	92.608543
1061.693	93.046408
1061.869	92.799755
1062.045	91.851184
1062.221	92.412563
1062.398	93.059003
1062.574	93.451890
1062.750	92.962471
1062.926	92.161407
1063.102	91.760175
1063.278	90.480889
1063.454	89.426594
1063.630	88.694055
1063.806	88.380919
1063.982	88.474432
1064.158	87.430334
1064.334	87.400968
1064.510	87.826511
1064.686	87.471026
1064.862	87.912473
1065.038	88.077382
1065.214	88.365806
1065.389	89.542799
1065.565	88.723185
1065.741	88.684217
1065.917	89.262289
1066.093	89.184684
1066.268	87.945208
1066.444	87.232375
1066.620	87.628391
1066.795	87.743955
1066.971	88.086965
1067.147	88.269757
1067.322	88.059717
1067.498	89.272622
1067.673	89.816561
1067.849	89.346387
1068.025	89.336916
1068.200	89.492764
1068.376	89.803907
1068.551	89.857080
1068.727	89.995935
1068.902	89.620385
1069.078	89.571339
1069.253	89.753046
1069.428	89.556016
1069.604	89.396383
1069.779	89.762458
1069.954	90.798363
1070.130	91.522523
1070.305	92.146021
1070.480	92.864242
1070.656	93.404293
1070.831	93.404507
1071.006	93.985290
1071.181	94.187358
1071.357	94.719434
1071.532	95.305667
1071.707	94.953875
1071.882	93.944126
1072.057	93.527077
1072.232	92.732801
1072.407	91.929958
1072.582	91.231892
1072.757	91.259626
1072.932	90.246050
1073.107	89.335275
1073.282	88.377349
1073.457	87.895433
1073.632	88.342894
1073.807	88.024759
1073.982	88.014278
1074.157	87.563051
1074.332	86.730360
1074.507	85.959710
1074.682	85.382178
1074.856	86.045460
1075.031	87.011384
1075.206	86.632372
1075.381	85.773566
1075.556	84.348939
1075.730	84.844978
1075.905	84.954477
1076.080	85.180686
1076.254	85.817853
1076.429	86.575694
1076.604	87.030691
1076.778	86.730319
1076.953	86.074416
1077.127	85.978150
1077.302	85.024093
1077.477	85.721381
1077.651	86.309832
1077.826	86.019895
1078.000	86.533610
1078.175	86.748413
1078.349	86.975407
1078.523	86.990628
1078.698	86.984050
1078.872	87.292558
1079.047	88.318286
1079.221	89.870721
1079.395	90.022862
1079.570	89.208875
1079.744	88.953454
1079.918	88.294175
1080.092	88.420624
1080.267	88.601726
1080.441	88.261817
1080.615	88.448051
1080.789	88.071710
1080.963	87.300558
1081.137	87.351827
1081.312	87.116933
1081.486	87.204504
1081.660	87.705460
1081.834	87.739251
1082.008	87.815546
1082.182	87.635021
1082.356	87.754050
1082.530	87.512643
1082.704	88.102837
1082.878	88.229662
1083.052	88.211528
1083.226	88.603531
1083.400	88.453957
1083.573	88.058338
1083.747	88.220675
1083.921	87.578451
1084.095	86.297336
1084.269	85.943054
1084.443	86.435965
1084.616	86.730068
1084.790	87.269077
1084.964	86.588164
1085.138	86.850880
1085.311	87.542396
1085.485	87.390014
1085.659	86.388902
1085.832	86.683977
1086.006	87.304483
1086.179	87.926658
1086.353	87.712200
1086.527	87.938299
1086.700	87.661446
1086.874	88.167539
1087.047	87.616760
1087.221	87.037549
1087.394	87.404760
1087.568	88.325830
1087.741	88.211993
1087.914	88.505481
1088.088	88.011071
1088.261	87.480413
1088.435	86.562638
1088.608	86.158449
1088.781	85.491034
1088.954	85.358341
1089.128	85.337781
1089.301	84.982969
1089.474	84.252315
1089.647	83.795467
1089.821	83.137575
1089.994	82.665320
1090.167	82.491437
1090.340	82.307244
1090.513	82.170402
1090.686	82.683093
1090.859	83.131403
1091.032	82.577965
1091.206	81.825929
1091.379	81.715187
1091.552	81.589006
1091.725	81.402048
1091.898	81.529761
1092.071	82.310273
1092.244	81.815037
1092.416	81.005819
1092.589	80.537303
1092.762	79.950527
1092.935	79.786412
1093.108	80.463977
1093.281	80.817175
1093.453	81.358738
1093.626	81.104277
1093.799	80.725294
1093.972	80.716574
1094.145	81.726545
1094.317	82.951505
1094.490	83.954650
1094.663	84.475245
1094.835	85.526898
1095.008	86.213484
1095.181	87.046327
1095.353	87.496507
1095.526	88.965278
1095.698	89.678851
1095.871	88.907198
1096.043	88.464098
1096.216	88.473150
1096.388	88.811970
1096.561	88.675478
1096.733	88.079712
1096.906	87.318571
1097.078	86.180417
1097.250	85.971720
1097.423	86.057687
1097.595	86.082698
1097.768	85.694398
1097.940	85.017944
1098.112	84.335838
1098.284	83.113146
1098.457	81.960511
1098.629	81.908095
1098.801	82.207656
1098.973	82.727426
1099.146	82.261267
1099.318	80.728693
1099.490	80.419420
1099.662	80.917304
1099.834	81.231518
1100.006	81.214638
1100.178	81.308454
1100.350	81.694465
1100.522	81.320237
1100.694	80.137939
1100.866	79.588959
1101.038	79.930048
1101.210	81.399589
1101.382	81.903136
1101.554	82.132257
1101.726	82.151621
1101.898	82.447129
1102.070	82.065040
1102.241	82.280999
1102.413	82.728233
1102.585	83.287654
1102.757	83.391708
1102.929	82.635303
1103.100	81.746493
1103.272	81.081127
1103.444	80.332273
1103.616	80.199492
1103.787	79.944278
1103.959	80.288067
1104.130	79.881497
1104.302	78.954827
1104.474	78.643976
1104.645	78.395343
1104.817	78.173668
1104.988	77.509725
1105.160	77.148441
1105.331	77.091439
1105.503	76.650391
1105.674	75.882090
1105.846	75.382642
1106.017	76.092666
1106.189	76.392230
1106.360	76.149476
1106.531	76.199043
1106.703	75.904537
1106.874	76.099999
1107.045	75.974550
1107.217	75.491947
1107.388	75.592843
1107.559	75.413797
1107.730	75.148749
1107.902	74.815342
1108.073	75.177350
1108.244	75.738230
1108.415	75.401994
1108.586	75.630185
1108.757	75.479401
1108.929	75.332334
1109.100	75.774300
1109.271	75.207102
1109.442	75.502958
1109.613	75.737815
1109.784	75.515369
1109.955	75.605370
1110.126	75.684506
1110.297	76.104041
1110.468	75.819995
1110.639	75.655126
1110.809	75.747688
1110.980	75.278383
1111.151	75.515451
1111.322	75.446685
1111.493	74.737327
1111.664	74.548363
1111.834	74.167731
1112.005	73.721362
1112.176	74.111882
1112.347	74.441478
1112.517	75.073799
1112.688	75.065403
1112.859	75.303675
1113.029	76.146598
1113.200	77.069782
1113.371	78.362144
1113.541	78.807899
1113.712	79.032450
1113.882	78.928986
1114.053	78.335731
1114.223	79.220683
1114.394	78.636740
1114.564	78.260279
1114.735	78.571773
1114.905	78.135722
1115.076	77.572879
1115.246	77.038597
1115.416	76.595046
1115.587	76.112956
1115.757	76.382838
1115.927	76.624504
1116.098	75.267860
1116.268	75.300991
1116.438	75.908268
1116.609	75.244526
1116.779	75.022687
1116.949	75.531535
1117.119	75.823455
1117.289	75.990765
1117.459	76.213823
1117.630	76.179486
1117.800	76.464036
1117.970	76.909330
1118.140	76.702330
1118.310	76.154299
1118.480	76.482787
1118.650	75.769334
1118.820	74.843669
1118.990	74.724470
1119.160	74.819806
1119.330	75.002329
1119.500	74.845864
1119.670	74.421373
1119.840	74.185224
1120.010	74.401622
1120.179	74.706244
1120.349	74.239163
1120.519	74.728563
1120.689	74.725319
1120.859	74.091744
1121.028	73.114287
1121.198	71.992815
1121.368	71.419066
1121.538	70.757321
1121.707	70.461220
1121.877	70.182108
1122.047	69.908044
1122.216	70.157312
1122.386	70.346272
1122.555	70.876690
1122.725	71.198772
1122.894	71.490292
1123.064	72.120719
1123.233	72.136510
1123.403	71.805303
1123.573	71.850813
1123.742	71.965144
1123.911	71.717060
1124.081	71.433060
1124.250	70.885699
1124.419	69.689050
1124.589	68.854374
1124.758	68.669838
1124.927	68.378887
1125.097	68.059798
1125.266	68.634983
1125.435	69.010918
1125.605	69.061927
1125.774	69.278944
1125.943	69.277045
1126.112	69.427713
1126.281	69.821381
1126.450	70.561748
1126.620	71.160319
1126.789	71.350317
1126.958	71.261521
1127.127	70.806331
1127.296	70.147370
1127.465	69.997455
1127.634	69.639789
1127.803	68.971062
1127.972	68.857959
1128.141	69.032323
1128.310	68.800662
1128.479	68.353086
1128.648	68.331607
1128.817	68.427126
1128.985	68.358446
1129.154	68.754543
1129.323	68.446285
1129.492	67.894647
1129.661	68.225668
1129.829	67.923348
1129.998	67.587070
1130.167	67.415177
1130.336	67.619502
1130.504	67.192782
1130.673	67.400614
1130.842	67.483637
1131.010	66.646950
1131.179	66.277942
1131.347	66.706752
1131.516	66.510792
1131.685	66.456539
1131.853	66.451264
1132.022	66.395721
1132.190	66.081674
1132.359	66.474307
1132.527	66.693023
1132.696	66.584307
1132.864	66.679855
1133.032	66.725591
1133.201	66.402863
1133.369	66.959476
1133.537	67.539382
1133.706	68.332139
1133.874	68.574278
1134.042	68.356927
1134.211	67.999852
1134.379	67.927259
1134.547	68.261022
1134.715	69.005597
1134.884	69.666788
1135.052	70.078820
1135.220	69.594485
1135.388	69.012228
1135.556	68.160332
1135.724	67.786042
1135.892	67.946754
1136.060	67.949183
1136.228	67.407050
1136.396	66.605894
1136.564	65.996790
1136.732	65.306690
1136.900	65.161686
1137.068	64.918122
1137.236	64.978112
1137.404	65.036551
1137.572	64.538789
1137.740	64.242436
1137.908	64.134593
1138.076	64.127806
1138.243	64.326554
1138.411	64.334592
1138.579	64.215287
1138.747	64.392451
1138.914	64.939599
1139.082	65.007845
1139.250	64.723988
1139.417	65.280574
1139.585	65.355810
1139.753	65.557173
1139.920	65.575383
1140.088	65.698065
1140.256	65.923583
1140.423	66.130041
1140.591	65.490349
1140.758	65.245261
1140.926	65.459384
1141.093	66.273655
1141.261	66.328655
1141.428	66.843972
1141.596	66.971637
1141.763	66.778237
1141.930	66.525286
1142.098	66.494442
1142.265	66.313681
1142.432	67.166644
1142.600	67.352820
1142.767	66.833955
1142.934	66.377734
1143.102	66.865383
1143.269	66.679489
1143.436	66.076967
1143.603	66.199136
1143.771	66.304768
1143.938	66.169194
1144.105	66.460306
1144.272	65.651032
1144.439	64.973228
1144.606	65.047284
1144.773	64.168915
1144.940	62.781793
1145.107	62.231869
1145.274	62.642959
1145.441	62.919386
1145.608	63.137446
1145.775	63.280826
1145.942	63.147899
1146.109	63.606883
1146.276	64.136807
1146.443	63.927486
1146.610	64.618567
1146.776	65.495674
1146.943	65.341057
1147.110	65.036654
1147.277	64.710990
1147.444	64.139065
1147.610	64.054150
1147.777	64.085266
1147.944	64.129632
1148.110	64.238843
1148.277	64.224764
1148.444	63.920386
1148.610	63.590738
1148.777	64.392988
1148.944	64.679543
1149.110	64.534749
1149.277	64.716260
1149.443	64.140771
1149.610	63.419183
1149.776	62.673612
1149.943	62.650568
1150.109	63.083707
1150.276	63.495967
1150.442	63.613782
1150.608	62.850017
1150.775	63.237126
1150.941	63.482560
1151.107	63.487445
1151.274	63.990597
1151.440	64.247625
1151.606	64.885676
1151.773	64.630868
1151.939	64.102047
1152.105	63.673125
1152.271	63.407794
1152.438	63.190560
1152.604	62.269756
1152.770	62.259044
1152.936	62.577252
1153.102	62.527552
1153.268	62.623552
1153.434	62.517369
1153.600	62.223307
1153.766	62.009182
1153.932	61.621366
1154.098	61.593590
1154.264	61.824515
1154.430	62.118097
1154.596	61.999213
1154.762	61.850262
1154.928	61.653273
1155.094	61.693217
1155.260	61.944202
1155.426	62.432075
1155.591	62.427677
1155.757	63.088624
1155.923	63.682622
1156.089	64.107389
1156.255	64.144080
1156.420	64.142660
1156.586	64.104348
1156.752	64.181349
1156.917	64.495405
1157.083	63.696121
1157.249	63.199526
1157.414	63.055006
1157.580	62.773004
1157.745	62.292960
1157.911	61.382242
1158.076	61.104832
1158.242	61.019505
1158.407	60.728885
1158.573	61.034377
1158.738	60.926929
1158.904	61.424760
1159.069	61.891567
1159.235	62.320153
1159.400	62.598536
1159.565	62.955051
1159.731	63.719407
1159.896	63.836240
1160.061	63.783846
1160.227	64.373962
1160.392	64.043477
1160.557	63.825477
1160.722	63.836584
1160.888	63.427606
1161.053	63.533067
1161.218	63.181662
1161.383	62.960397
1161.548	62.897877
1161.713	63.144775
1161.878	62.789290
1162.043	62.404338
1162.208	62.999249
1162.374	62.815509
1162.539	62.472249
1162.704	63.060490
1162.869	63.138277
1163.033	63.409403
1163.198	63.480866
1163.363	63.047756
1163.528	62.428622
1163.693	62.846946
1163.858	62.744294
1164.023	62.217039
1164.188	62.685512
1164.353	63.019350
1164.517	62.316267
1164.682	62.002958
1164.847	61.947654
1165.011	61.436301
1165.176	61.711262
1165.341	62.629585
1165.506	63.122641
1165.670	63.693430
1165.835	63.754166
1166.000	63.819493
1166.164	63.433153
1166.329	63.192368
1166.493	63.257251
1166.658	63.423787
1166.822	63.995643
1166.987	64.473514
1167.151	64.105222
1167.316	64.258055
1167.480	63.679622
1167.645	63.616705
1167.809	63.136605
1167.973	63.034461
1168.138	63.649585
1168.302	64.170864
1168.466	63.670050
1168.631	63.145895
1168.795	62.543838
1168.959	62.585674
1169.124	61.948484
1169.288	61.923784
1169.452	61.588074
1169.616	61.729193
1169.780	62.050379
1169.944	62.333179
1170.109	62.254529
1170.273	62.316791
1170.437	62.114355
1170.601	61.836966
1170.765	61.068616
1170.929	60.872552
1171.093	60.882764
1171.257	60.983743
1171.421	60.969625
1171.585	61.271166
1171.749	61.337534
1171.913	61.063042
1172.077	61.374848
1172.240	61.776336
1172.404	62.222894
1172.568	62.982623
1172.732	63.624681
1172.896	64.119404
1173.060	64.620874
1173.223	64.764176
1173.387	64.526745
1173.551	64.207951
1173.715	64.354831
1173.878	64.572895
1174.042	65.337929
1174.206	65.607358
1174.369	65.558922
1174.533	65.228517
1174.696	64.822991
1174.860	64.237711
1175.023	64.729410
1175.187	65.428078
1175.351	65.657836
1175.514	65.785885
1175.677	65.508237
1175.841	64.512140
1176.004	64.001958
1176.168	63.812339
1176.331	63.926815
1176.495	64.137307
1176.658	64.384540
1176.821	64.034745
1176.985	63.199570
1177.148	62.670389
1177.311	62.193825
1177.474	61.520667
1177.638	62.055658
1177.801	62.672133
1177.964	62.991728
1178.127	62.864378
1178.291	62.770538
1178.454	62.928686
1178.617	62.907385
1178.780	63.451224
1178.943	63.772947
1179.106	63.803548
1179.269	64.702392
1179.432	64.828312
1179.595	64.414606
1179.758	64.125126
1179.921	64.257217
1180.084	64.740712
1180.247	64.765671
1180.410	64.714696
1180.573	64.265102
1180.736	64.055298
1180.899	64.208082
1181.061	64.048176
1181.224	63.654488
1181.387	63.984913
1181.550	64.141537
1181.713	64.482150
1181.875	64.224673
1182.038	64.180644
1182.201	64.125603
1182.363	63.880536
1182.526	64.141991
1182.689	64.241248
1182.851	64.336590
1183.014	64.516575
1183.177	64.470994
1183.339	64.459780
1183.502	64.429097
1183.664	64.569707
1183.827	64.580841
1183.989	64.480428
1184.152	64.375818
1184.314	63.846799
1184.477	63.869231
1184.639	63.661396
1184.801	63.294038
1184.964	62.766390
1185.126	62.562790
1185.288	62.689459
1185.451	62.392779
1185.613	61.975048
1185.775	61.900510
1185.938	62.470291
1186.100	63.240875
1186.262	63.465673
1186.424	63.999257
1186.586	64.628557
1186.749	64.898424
1186.911	64.939679
1187.073	64.666453
1187.235	65.052453
1187.397	65.736797
1187.559	66.596265
1187.721	66.936286
1187.883	66.906819
1188.045	66.694994
1188.207	66.296150
1188.369	65.906275
1188.531	66.255258
1188.693	66.491548
1188.855	66.258752
1189.017	66.156949
1189.179	66.378543
1189.341	65.956662
1189.502	66.148234
1189.664	66.215323
1189.826	66.631974
1189.988	66.871329
1190.150	67.156998
1190.311	67.278216
1190.473	67.819518
1190.635	68.173627
1190.796	67.847238
1190.958	67.746086
1191.120	67.972556
1191.281	67.713760
1191.443	67.545725
1191.604	67.355822
1191.766	67.065773
1191.928	66.988309
1192.089	66.778451
1192.251	66.390269
1192.412	66.560353
1192.574	67.137846
1192.735	67.363622
1192.896	67.003548
1193.058	67.227245
1193.219	67.354568
1193.381	67.694786
1193.542	68.503170
1193.703	68.845240
1193.865	69.262768
1194.026	69.832078
1194.187	69.801772
1194.349	69.503106
1194.510	69.174776
1194.671	69.403381
1194.832	69.123448
1194.993	68.921172
1195.155	68.736719
1195.316	68.277647
1195.477	68.144929
1195.638	67.613938
1195.799	67.084734
1195.960	67.103665
1196.121	67.267393
1196.282	67.914620
1196.443	68.393731
1196.604	68.865000
1196.765	69.417304
1196.926	69.620717
1197.087	70.081960
1197.248	70.730185
1197.409	71.693972
1197.570	72.146325
1197.730	72.039095
1197.891	71.344577
1198.052	70.361615
1198.213	70.550650
1198.374	70.838297
1198.534	70.313472
1198.695	69.850904
1198.856	69.334512
1199.016	69.032750
1199.177	68.700306
1199.338	68.507128
1199.498	68.909781
1199.659	69.948488
1199.820	70.976009
1199.980	70.662776
1200.141	70.148229
1200.301	70.330340
1200.462	70.175340
1200.622	70.036408
1200.783	69.902771
1200.943	69.543344
1201.104	69.415566
1201.264	69.022592
1201.424	68.825566
1201.585	68.530065
1201.745	68.527267
1201.906	68.307054
1202.066	68.250008
1202.226	68.762784
1202.386	69.244067
1202.547	69.429643
1202.707	70.147176
1202.867	70.679294
1203.027	70.563559
1203.188	70.501000
1203.348	70.408503
1203.508	70.403376
1203.668	70.707963
1203.828	71.020904
1203.988	70.978834
1204.148	70.843964
1204.308	70.533897
1204.468	70.088864
1204.628	69.503072
1204.788	69.961027
1204.948	70.326568
1205.108	70.856760
1205.268	70.953053
1205.428	71.010938
1205.588	71.473906
1205.748	71.742280
1205.908	72.348807
1206.068	73.240790
1206.228	73.831415
1206.387	74.265226
1206.547	74.248648
1206.707	74.041977
1206.867	73.359492
1207.026	73.289819
1207.186	73.285210
1207.346	72.825893
1207.505	72.606957
1207.665	71.988703
1207.825	71.280941
1207.984	70.765036
1208.144	70.834151
1208.303	70.776883
1208.463	70.611129
1208.622	71.304394
1208.782	71.749417
1208.941	72.562223
1209.101	73.465501
1209.260	74.218798
1209.420	74.631251
1209.579	74.847873
1209.739	75.199426
1209.898	75.370831
1210.057	75.394011
1210.217	75.592046
1210.376	75.171591
1210.535	74.850692
1210.694	74.344267
1210.854	73.444728
1211.013	73.198701
1211.172	72.854993
1211.331	73.062816
1211.490	72.504469
1211.650	71.866332
1211.809	71.621276
1211.968	71.306824
1212.127	71.743053
1212.286	71.987447
1212.445	72.260077
1212.604	72.916359
1212.763	72.607541
1212.922	73.348114
1213.081	73.265548
1213.240	73.961491
1213.399	74.710571
1213.558	75.479277
1213.717	76.067420
1213.876	75.963170
1214.035	75.882055
1214.194	75.541709
1214.352	75.325292
1214.511	75.554707
1214.670	75.232261
1214.829	75.218081
1214.988	75.289416
1215.146	74.710563
1215.305	74.399555
1215.464	74.377004
1215.622	74.215654
1215.781	74.263967
1215.940	73.988977
1216.098	73.476298
1216.257	73.049753
1216.415	72.357347
1216.574	72.145037
1216.732	72.295348
1216.891	72.671163
1217.049	72.772483
1217.208	72.651767
1217.366	72.917779
1217.525	72.551088
1217.683	72.822972
1217.842	72.929915
1218.000	73.466080
1218.158	74.386767
1218.317	74.656001
1218.475	74.623014
1218.633	75.128964
1218.792	75.454816
1218.950	75.957545
1219.108	75.985535
1219.266	76.376403
1219.425	76.871259
1219.583	77.676062
1219.741	77.431428
1219.899	77.145226
1220.057	77.406239
1220.215	76.967699
1220.373	75.753384
1220.531	75.449484
1220.689	75.141958
1220.847	74.653010
1221.005	74.298331
1221.163	74.093481
1221.322	73.937929
1221.479	74.231330
1221.637	73.406977
1221.795	72.068893
1221.953	71.413348
1222.111	71.839760
1222.269	71.702026
1222.427	71.785372
1222.584	71.996983
1222.742	72.256698
1222.900	72.150117
1223.058	71.922912
1223.216	72.418921
1223.373	73.572103
1223.531	74.726957
1223.689	75.177914
1223.846	75.264076
1224.004	75.062386
1224.162	75.457837
1224.319	75.502385
1224.477	75.562048
1224.634	75.195815
1224.792	75.087229
1224.949	74.599023
1225.107	74.739812
1225.264	74.707783
1225.422	75.141854
1225.579	74.980096
1225.737	75.344093
1225.894	75.229158
1226.052	75.337394
1226.209	75.418389
1226.366	75.950473
1226.523	76.207022
1226.681	76.635067
1226.838	76.908128
1226.995	77.274161
1227.153	77.875003
1227.310	78.507449
1227.467	78.543805
1227.624	77.977540
1227.781	77.508227
1227.938	77.658224
1228.096	77.270893
1228.253	76.730807
1228.410	75.590907
1228.567	74.987067
1228.724	74.756064
1228.881	74.088827
1229.038	73.919338
1229.195	73.977564
1229.352	73.773027
1229.509	73.986106
1229.666	73.736770
1229.823	73.321859
1229.980	73.319268
1230.136	74.082385
1230.293	73.445634
1230.450	72.955514
1230.607	73.016108
1230.764	72.885917
1230.921	72.624088
1231.077	72.714301
1231.234	72.660114
1231.391	72.566133
1231.547	73.327007
1231.704	73.790515
1231.861	73.444263
1232.018	74.179413
1232.174	74.534232
1232.331	74.407389
1232.487	74.935075
1232.644	75.366686
1232.800	75.684609
1232.957	76.017220
1233.113	76.049791
1233.270	75.490152
1233.426	74.911296
1233.583	74.111577
1233.739	73.578616
1233.896	74.034058
1234.052	74.141129
1234.208	73.768857
1234.365	73.310195
1234.521	73.527346
1234.677	73.370149
1234.834	73.460700
1234.990	73.648418
1235.146	74.117749
1235.302	75.170939
1235.459	75.739835
1235.615	75.463361
1235.771	76.094885
1235.927	76.679239
1236.083	77.064458
1236.239	77.098151
1236.396	77.700059
1236.552	77.520750
1236.708	77.689071
1236.864	77.695212
1237.020	77.487345
1237.176	77.154368
1237.332	77.103561
1237.488	76.683428
1237.644	76.058542
1237.799	76.172044
1237.955	76.460595
1238.111	76.522065
1238.267	77.038910
1238.423	77.126977
1238.579	77.194642
1238.734	77.129192
1238.890	77.761320
1239.046	78.501367
1239.202	79.025946
1239.357	79.602377
1239.513	79.926881
1239.669	79.951310
1239.824	79.701630
1239.980	79.845829
1240.136	80.184825
1240.291	80.143537
1240.447	80.598664
1240.603	80.654696
1240.758	80.312674
1240.914	79.824834
1241.069	79.611105
1241.225	79.138864
1241.380	78.887987
1241.535	78.665034
1241.691	78.259160
1241.846	77.603390
1242.002	77.485886
1242.157	76.713443
1242.313	75.663144
1242.468	75.171854
1242.623	75.205231
1242.778	75.301425
1242.934	75.140469
1243.089	75.113714
1243.244	75.231836
1243.399	75.768237
1243.554	76.265723
1243.710	76.691098
1243.865	77.884372
1244.020	78.421761
1244.175	78.222705
1244.330	78.084021
1244.485	77.548822
1244.640	78.043136
1244.795	78.008200
1244.950	78.458936
1245.105	78.755040
1245.260	79.074971
1245.415	79.291556
1245.570	78.786042
1245.725	78.505752
1245.880	79.175492
1246.035	79.945206
1246.190	80.962143
1246.345	80.832284
1246.499	80.952023
1246.654	80.743811
1246.809	80.549884
1246.964	80.397072
1247.118	80.419126
1247.273	80.858533
1247.428	81.597921
1247.583	81.906667
1247.737	81.831874
1247.892	81.421302
1248.047	81.268764
1248.201	80.965148
1248.356	80.729207
1248.510	80.671321
1248.665	80.908990
1248.819	80.871170
1248.974	80.802678
1249.128	80.447079
1249.283	79.930351
1249.437	79.986254
1249.592	80.872191
1249.746	80.627994
1249.900	80.764222
1250.055	80.217574
1250.209	79.656355
1250.363	79.499802
1250.518	79.669235
1250.672	79.941520
1250.826	80.707421
1250.981	80.855057
1251.135	80.517763
1251.289	79.639685
1251.443	80.162572
1251.597	80.231767
1251.751	81.018131
1251.906	81.358829
1252.060	81.387815
1252.214	81.443214
1252.368	81.019737
1252.522	80.631608
1252.676	80.544435
1252.830	80.174610
1252.984	80.265845
1253.138	80.713952
1253.292	80.584982
1253.446	81.228417
1253.600	82.082955
1253.754	82.033964
1253.907	81.446683
1254.061	80.884515
1254.215	80.578238
1254.369	80.432024
1254.523	81.614762
1254.677	81.861912
1254.830	81.524433
1254.984	81.996939
1255.138	81.852472
1255.292	81.558097
1255.445	81.393435
1255.599	81.455657
1255.752	82.386220
1255.906	82.671875
1256.060	83.260217
1256.213	82.355255
1256.367	82.046249
1256.520	82.068620
1256.674	82.080984
1256.827	81.936550
1256.981	81.269891
1257.134	80.947832
1257.288	81.139137
1257.441	80.991525
1257.594	81.474796
1257.748	81.141037
1257.901	80.756529
1258.055	80.394069
1258.208	80.415280
1258.361	80.199957
1258.515	80.139323
1258.668	81.076270
1258.821	81.629783
1258.974	81.307257
1259.127	81.008225
1259.281	81.018440
1259.434	82.031417
1259.587	81.966198
1259.740	81.874729
1259.893	82.179462
1260.046	82.232647
1260.199	81.237928
1260.352	80.092718
1260.505	79.764060
1260.658	80.147648
1260.811	80.217930
1260.964	79.819743
1261.117	79.021781
1261.270	79.603260
1261.423	79.469955
1261.576	79.054034
1261.729	79.206340
1261.882	80.153856
1262.035	80.726789
1262.188	81.539628
1262.340	81.511139
1262.493	82.021915
1262.646	82.412309
1262.798	83.132634
1262.951	83.711011
1263.104	85.265990
1263.257	85.997947
1263.409	85.921877
1263.562	84.676340
1263.714	84.418822
1263.867	84.638166
1264.020	85.714734
1264.172	86.027679
1264.325	86.090497
1264.477	85.952307
1264.630	86.190526
1264.782	85.242211
1264.935	84.379981
1265.087	84.258240
1265.240	86.023927
1265.392	86.885453
1265.544	86.325439
1265.697	85.014218
1265.849	84.172555
1266.001	83.397109
1266.154	82.525121
1266.306	82.257244
1266.458	82.258732
1266.610	82.669945
1266.762	83.352581
1266.915	82.949166
1267.067	81.852015
1267.219	81.716947
1267.371	81.582638
1267.523	82.090036
1267.675	83.476012
1267.828	84.411468
1267.979	85.051391
1268.132	85.926847
1268.284	85.821161
1268.436	85.381450
1268.588	85.238679
1268.740	86.563130
1268.891	87.435892
1269.043	87.965321
1269.195	87.549546
1269.347	86.729367
1269.499	86.552941
1269.651	85.571702
1269.803	85.602068
1269.955	85.288631
1270.106	85.230057
1270.258	85.327903
1270.410	85.230902
1270.562	85.029491
1270.713	85.126444
1270.865	85.252889
1271.017	85.952148
1271.168	86.004444
1271.320	85.237843
1271.471	83.956762
1271.623	83.768161
1271.775	83.923606
1271.926	84.476488
1272.078	84.044032
1272.229	83.668112
1272.381	84.172631
1272.532	84.318753
1272.684	82.955386
1272.835	81.808261
1272.986	82.327161
1273.138	83.374120
1273.289	84.559678
1273.440	84.566872
1273.592	84.846642
1273.743	85.825510
1273.894	87.683857
1274.046	89.220797
1274.197	89.794674
1274.348	91.114258
1274.500	93.158347
1274.651	94.922904
1274.802	96.084711
>>>>>>>>>> END of Data <<<<<<<<<<
